D:\MassHunter\GCMS\1\data\Mariana\AlkenylphenolsJan12\T2F1.D Thu Jan 13 15:10:38 2022
Start of data points
3.29285	309
3.29858	0
3.30430	193
3.31002	0
3.31575	0
3.32147	171
3.32718	0
3.33292	162
3.33863	0
3.34435	315
3.35008	0
3.35580	0
3.36152	0
3.36725	176
3.37297	227
3.37868	0
3.38442	0
3.39013	395
3.39585	0
3.40158	0
3.40730	0
3.41302	0
3.41873	0
3.42447	0
3.43018	0
3.43590	0
3.44163	284
3.44735	0
3.45307	0
3.45880	0
3.46452	192
3.47023	180
3.47597	197
3.48168	0
3.48740	158
3.49313	399
3.49885	275
3.50457	0
3.51030	0
3.51602	0
3.52173	0
3.52747	0
3.53318	230
3.53890	169
3.54463	334
3.55035	172
3.55607	0
3.56180	0
3.56752	0
3.57323	0
3.57897	176
3.58468	211
3.59040	161
3.59613	217
3.60185	173
3.60757	238
3.61328	193
3.61902	187
3.62473	351
3.63045	403
3.63618	172
3.64190	0
3.64762	0
3.65335	212
3.65907	0
3.66478	204
3.67052	0
3.67623	169
3.68195	0
3.68768	0
3.69340	0
3.69912	244
3.70485	0
3.71057	183
3.71628	0
3.72202	0
3.72773	154
3.73345	183
3.73918	0
3.74490	0
3.75062	0
3.75635	312
3.76207	0
3.76778	175
3.77352	328
3.77923	0
3.78495	383
3.79067	160
3.79640	159
3.80212	0
3.80783	0
3.81357	0
3.81928	160
3.82500	194
3.83073	154
3.83645	0
3.84217	208
3.84790	0
3.85362	0
3.85933	268
3.86507	0
3.87078	0
3.87650	0
3.88223	0
3.88795	0
3.89367	0
3.89940	0
3.90512	0
3.91083	0
3.91657	0
3.92228	248
3.92800	639
3.93373	529
3.93945	154
3.94517	0
3.95088	156
3.95662	0
3.96233	0
3.96805	0
3.97378	160
3.97950	0
3.98522	0
3.99095	207
3.99667	0
4.00238	0
4.00812	0
4.01383	0
4.01955	0
4.02528	0
4.03100	205
4.03672	0
4.04245	189
4.04817	0
4.05388	356
4.05962	178
4.06533	0
4.07105	0
4.07678	0
4.08250	0
4.08822	152
4.09395	0
4.09967	0
4.10538	0
4.11112	0
4.11683	0
4.12255	0
4.12827	0
4.13400	0
4.13972	162
4.14543	0
4.15117	0
4.15688	160
4.16260	0
4.16833	0
4.17405	0
4.17977	0
4.18550	0
4.19122	156
4.19693	0
4.20267	172
4.20838	0
4.21410	0
4.21983	567
4.22555	564
4.23127	287
4.23700	0
4.24272	0
4.24843	0
4.25417	0
4.25988	0
4.26560	0
4.27133	0
4.27705	0
4.28277	195
4.28850	165
4.29422	0
4.29993	0
4.30565	0
4.31138	0
4.31710	0
4.32282	0
4.32855	0
4.33427	0
4.33998	0
4.34572	0
4.35143	0
4.35715	0
4.36288	0
4.36860	0
4.37432	0
4.38005	0
4.38577	0
4.39148	0
4.39722	154
4.40293	0
4.40865	0
4.41438	0
4.42010	0
4.42582	0
4.43155	0
4.43727	0
4.44298	0
4.44872	0
4.45443	0
4.46015	0
4.46588	0
4.47160	0
4.47732	0
4.48303	0
4.48877	0
4.49448	0
4.50020	0
4.50593	0
4.51165	0
4.51737	0
4.52310	0
4.52882	0
4.53453	0
4.54027	0
4.54598	0
4.55170	0
4.55743	0
4.56315	0
4.56887	0
4.57460	0
4.58032	0
4.58603	0
4.59177	0
4.59748	0
4.60320	0
4.60893	0
4.61465	0
4.62037	0
4.62610	0
4.63182	0
4.63753	0
4.64327	0
4.64898	0
4.65470	0
4.66042	0
4.66615	0
4.67187	0
4.67758	0
4.68332	0
4.68903	0
4.69475	0
4.70048	164
4.70620	167
4.71192	1329
4.71765	1711
4.72337	1480
4.72908	1076
4.73482	795
4.74053	356
4.74625	203
4.75198	206
4.75770	185
4.76342	0
4.76915	0
4.77487	157
4.78058	0
4.78632	0
4.79203	0
4.79775	0
4.80348	0
4.80920	0
4.81492	0
4.82065	0
4.82637	0
4.83208	0
4.83780	0
4.84353	0
4.84925	164
4.85497	0
4.86070	0
4.86642	0
4.87213	0
4.87787	0
4.88358	0
4.88930	0
4.89503	0
4.90075	0
4.90647	0
4.91220	0
4.91792	0
4.92363	0
4.92937	0
4.93508	0
4.94080	0
4.94653	0
4.95225	0
4.95797	0
4.96370	0
4.96942	0
4.97513	0
4.98087	0
4.98658	0
4.99230	0
4.99803	0
5.00375	0
5.00947	0
5.01518	0
5.02092	0
5.02663	0
5.03235	0
5.03808	0
5.04380	0
5.04952	160
5.05525	0
5.06097	0
5.06668	0
5.07242	0
5.07813	0
5.08385	0
5.08958	0
5.09530	0
5.10102	0
5.10675	0
5.11247	0
5.11818	0
5.12392	0
5.12963	0
5.13535	0
5.14108	0
5.14680	153
5.15252	0
5.15825	0
5.16397	0
5.16968	0
5.17542	0
5.18113	0
5.18685	0
5.19257	0
5.19830	167
5.20402	0
5.20973	0
5.21547	0
5.22118	0
5.22690	0
5.23263	0
5.23835	0
5.24407	0
5.24980	0
5.25552	0
5.26123	0
5.26697	0
5.27268	0
5.27840	0
5.28413	0
5.28985	0
5.29557	0
5.30130	0
5.30702	0
5.31273	0
5.31847	0
5.32418	0
5.32990	0
5.33563	0
5.34135	0
5.34707	0
5.35280	0
5.35852	0
5.36423	0
5.36995	0
5.37568	0
5.38140	0
5.38712	0
5.39285	0
5.39857	0
5.40428	0
5.41002	0
5.41573	0
5.42145	0
5.42718	0
5.43290	161
5.43862	0
5.44435	0
5.45007	0
5.45578	0
5.46152	0
5.46723	0
5.47295	160
5.47868	0
5.48440	0
5.49012	0
5.49585	0
5.50157	178
5.50728	211
5.51302	0
5.51873	230
5.52445	0
5.53018	0
5.53590	191
5.54162	0
5.54733	166
5.55307	0
5.55878	0
5.56450	0
5.57023	0
5.57595	0
5.58167	0
5.58740	0
5.59312	0
5.59883	0
5.60457	0
5.61028	0
5.61600	0
5.62173	182
5.62745	350
5.63317	749
5.63890	1005
5.64462	161
5.65033	320
5.65607	0
5.66178	0
5.66750	0
5.67323	0
5.67895	0
5.68467	0
5.69040	0
5.69612	0
5.70183	163
5.70757	0
5.71328	0
5.71900	0
5.72472	0
5.73045	0
5.73617	0
5.74188	0
5.74762	244
5.75333	474
5.75905	1020
5.76478	1312
5.77050	1387
5.77622	1489
5.78195	1524
5.78767	1068
5.79338	1371
5.79912	1345
5.80483	1219
5.81055	813
5.81628	1745
5.82200	1355
5.82772	1018
5.83345	692
5.83917	998
5.84488	575
5.85062	654
5.85633	744
5.86205	947
5.86778	523
5.87350	729
5.87922	602
5.88495	398
5.89067	331
5.89638	176
5.90210	463
5.90783	351
5.91355	246
5.91927	332
5.92500	181
5.93072	234
5.93643	412
5.94217	440
5.94788	203
5.95360	213
5.95933	0
5.96505	327
5.97077	237
5.97650	431
5.98222	217
5.98793	346
5.99367	0
5.99938	0
6.00510	177
6.01083	223
6.01655	193
6.02227	179
6.02800	0
6.03372	215
6.03943	164
6.04517	381
6.05088	0
6.05660	0
6.06233	222
6.06805	0
6.07377	0
6.07948	168
6.08522	171
6.09093	224
6.09665	0
6.10238	0
6.10810	155
6.11382	197
6.11955	150
6.12527	165
6.13098	0
6.13672	0
6.14243	0
6.14815	159
6.15388	0
6.15960	0
6.16532	0
6.17105	161
6.17677	0
6.18248	0
6.18822	0
6.19393	0
6.19965	0
6.20538	201
6.21110	0
6.21682	0
6.22255	0
6.22827	0
6.23398	157
6.23972	199
6.24543	0
6.25115	0
6.25687	0
6.26260	152
6.26832	0
6.27403	0
6.27977	0
6.28548	0
6.29120	0
6.29693	0
6.30265	0
6.30837	176
6.31410	170
6.31982	0
6.32553	0
6.33127	158
6.33698	345
6.34270	0
6.34843	0
6.35415	0
6.35987	0
6.36560	382
6.37132	0
6.37703	0
6.38277	188
6.38848	380
6.39420	270
6.39993	409
6.40565	0
6.41137	0
6.41710	0
6.42282	151
6.42853	0
6.43425	0
6.43998	205
6.44570	0
6.45142	0
6.45715	151
6.46287	0
6.46858	0
6.47432	0
6.48003	160
6.48575	1282
6.49148	2278
6.49720	1277
6.50292	565
6.50865	178
6.51437	0
6.52008	0
6.52582	0
6.53153	0
6.53725	0
6.54298	0
6.54870	0
6.55442	0
6.56015	0
6.56587	0
6.57158	0
6.57732	0
6.58303	0
6.58875	0
6.59448	156
6.60020	0
6.60592	0
6.61163	0
6.61737	0
6.62308	0
6.62880	185
6.63453	627
6.64025	956
6.64597	791
6.65170	1529
6.65742	1201
6.66313	1568
6.66887	916
6.67458	1275
6.68030	1537
6.68603	1103
6.69175	1474
6.69747	966
6.70320	661
6.70892	769
6.71463	758
6.72037	740
6.72608	590
6.73180	599
6.73753	553
6.74325	528
6.74897	235
6.75470	785
6.76042	520
6.76613	651
6.77187	470
6.77758	627
6.78330	467
6.78902	247
6.79475	361
6.80047	213
6.80618	175
6.81192	377
6.81763	0
6.82335	0
6.82908	188
6.83480	164
6.84052	158
6.84625	0
6.85197	0
6.85768	181
6.86342	0
6.86913	0
6.87485	0
6.88058	156
6.88630	0
6.89202	0
6.89775	160
6.90347	158
6.90918	0
6.91492	243
6.92063	0
6.92635	0
6.93208	165
6.93780	152
6.94352	0
6.94925	0
6.95497	186
6.96068	194
6.96640	469
6.97213	862
6.97785	1056
6.98357	675
6.98930	645
6.99502	195
7.00073	441
7.00647	250
7.01218	0
7.01790	164
7.02363	0
7.02935	358
7.03507	176
7.04080	163
7.04652	173
7.05223	186
7.05797	170
7.06368	0
7.06940	209
7.07513	0
7.08085	0
7.08657	0
7.09230	0
7.09802	0
7.10373	160
7.10947	163
7.11518	749
7.12090	329
7.12663	182
7.13235	520
7.13807	208
7.14378	324
7.14952	356
7.15523	357
7.16095	410
7.16668	0
7.17240	0
7.17812	165
7.18385	178
7.18957	154
7.19528	320
7.20102	161
7.20673	335
7.21245	175
7.21818	172
7.22390	154
7.22962	156
7.23535	167
7.24107	174
7.24678	0
7.25252	0
7.25823	0
7.26395	0
7.26968	171
7.27540	174
7.28112	0
7.28685	0
7.29257	324
7.29828	156
7.30402	337
7.30973	162
7.31545	0
7.32117	167
7.32690	0
7.33262	331
7.33833	0
7.34407	0
7.34978	0
7.35550	0
7.36123	0
7.36695	0
7.37267	321
7.37840	161
7.38412	0
7.38983	0
7.39557	483
7.40128	538
7.40700	975
7.41273	1562
7.41845	939
7.42417	1632
7.42990	743
7.43562	375
7.44133	0
7.44707	214
7.45278	0
7.45850	0
7.46423	0
7.46995	189
7.47567	179
7.48140	0
7.48712	0
7.49283	0
7.49855	0
7.50428	0
7.51000	0
7.51572	0
7.52145	153
7.52717	0
7.53288	0
7.53862	0
7.54433	170
7.55005	215
7.55578	0
7.56150	0
7.56722	0
7.57295	172
7.57867	0
7.58438	0
7.59012	183
7.59583	0
7.60155	865
7.60728	1182
7.61300	1451
7.61872	713
7.62445	419
7.63017	622
7.63588	893
7.64162	691
7.64733	612
7.65305	480
7.65878	401
7.66450	208
7.67022	495
7.67593	237
7.68167	0
7.68738	399
7.69310	383
7.69883	351
7.70455	745
7.71027	179
7.71600	152
7.72172	0
7.72743	320
7.73317	262
7.73888	170
7.74460	0
7.75033	179
7.75605	206
7.76177	0
7.76750	209
7.77322	527
7.77893	0
7.78467	0
7.79038	0
7.79610	166
7.80183	0
7.80755	166
7.81327	368
7.81900	381
7.82472	535
7.83043	329
7.83617	526
7.84188	445
7.84760	237
7.85332	730
7.85905	432
7.86477	394
7.87048	746
7.87622	280
7.88193	153
7.88765	203
7.89338	1019
7.89910	843
7.90482	573
7.91055	0
7.91627	0
7.92198	157
7.92772	171
7.93343	0
7.93915	393
7.94488	339
7.95060	1384
7.95632	2002
7.96205	2018
7.96777	2382
7.97348	2291
7.97922	1353
7.98493	1338
7.99065	486
7.99638	1159
8.00210	705
8.00782	486
8.01355	1453
8.01927	945
8.02498	806
8.03070	212
8.03643	192
8.04215	167
8.04787	216
8.05360	187
8.05932	172
8.06503	0
8.07077	343
8.07648	601
8.08220	201
8.08793	372
8.09365	346
8.09937	0
8.10510	0
8.11082	0
8.11653	337
8.12227	0
8.12798	189
8.13370	0
8.13943	0
8.14515	165
8.15087	722
8.15660	1282
8.16232	1921
8.16803	1119
8.17377	764
8.17948	358
8.18520	193
8.19093	0
8.19665	169
8.20237	156
8.20808	0
8.21382	178
8.21953	0
8.22525	325
8.23098	0
8.23670	156
8.24242	903
8.24815	1915
8.25387	1992
8.25958	967
8.26532	1044
8.27103	745
8.27675	1065
8.28248	2184
8.28820	2347
8.29392	740
8.29965	222
8.30537	0
8.31108	0
8.31682	184
8.32253	1048
8.32825	0
8.33398	809
8.33970	173
8.34542	359
8.35115	342
8.35687	502
8.36258	238
8.36830	316
8.37403	165
8.37975	600
8.38547	216
8.39120	539
8.39692	0
8.40263	494
8.40837	1402
8.41408	1055
8.41980	1334
8.42553	1311
8.43125	399
8.43697	778
8.44270	482
8.44842	426
8.45413	670
8.45987	584
8.46558	255
8.47130	198
8.47703	809
8.48275	583
8.48847	1214
8.49420	1002
8.49992	984
8.50563	967
8.51137	1000
8.51708	1800
8.52280	2269
8.52853	2140
8.53425	1046
8.53997	375
8.54570	1071
8.55142	1102
8.55713	1075
8.56285	3671
8.56858	4907
8.57430	5611
8.58002	5095
8.58575	4498
8.59147	4364
8.59718	5733
8.60292	9146
8.60863	11938
8.61435	11325
8.62008	14101
8.62580	14388
8.63152	11839
8.63725	12672
8.64297	11421
8.64868	8474
8.65442	4635
8.66013	3474
8.66585	3709
8.67158	2613
8.67730	1699
8.68302	1994
8.68875	1205
8.69447	2084
8.70018	2451
8.70592	2402
8.71163	1943
8.71735	1423
8.72308	1431
8.72880	1325
8.73452	865
8.74023	2409
8.74597	6793
8.75168	10577
8.75740	15990
8.76313	20017
8.76885	24702
8.77457	25256
8.78030	17844
8.78602	8462
8.79173	8183
8.79747	9693
8.80318	15641
8.80890	16647
8.81463	12963
8.82035	6673
8.82607	2297
8.83180	2261
8.83752	2865
8.84323	3897
8.84897	4998
8.85468	4600
8.86040	3636
8.86613	2161
8.87185	1779
8.87757	914
8.88330	521
8.88902	1592
8.89473	1043
8.90047	2269
8.90618	4140
8.91190	4720
8.91762	4516
8.92335	3541
8.92907	3501
8.93478	4183
8.94052	5391
8.94623	6008
8.95195	4053
8.95768	2643
8.96340	2320
8.96912	2369
8.97485	2033
8.98057	2652
8.98628	3204
8.99202	2566
8.99773	3681
9.00345	2927
9.00918	2224
9.01490	2400
9.02062	2586
9.02635	2872
9.03207	3163
9.03778	3210
9.04352	2158
9.04923	2123
9.05495	2778
9.06068	4687
9.06640	3496
9.07212	3192
9.07783	1939
9.08357	2454
9.08928	4065
9.09500	3813
9.10073	5358
9.10645	6740
9.11217	10900
9.11790	11166
9.12362	12623
9.12933	11599
9.13507	9087
9.14078	7519
9.14650	7982
9.15223	6870
9.15795	7401
9.16367	6455
9.16940	4901
9.17512	3470
9.18083	2362
9.18657	2025
9.19228	2113
9.19800	1187
9.20373	2314
9.20945	2457
9.21517	3443
9.22090	5299
9.22662	6265
9.23233	8391
9.23807	9924
9.24378	9463
9.24950	7629
9.25522	4852
9.26095	4048
9.26667	2762
9.27238	1986
9.27812	1511
9.28383	1374
9.28955	1770
9.29528	1148
9.30100	2266
9.30672	2463
9.31245	3880
9.31817	3595
9.32388	3370
9.32962	4442
9.33533	4820
9.34105	3742
9.34678	3948
9.35250	3407
9.35822	7590
9.36395	12914
9.36967	18379
9.37538	14825
9.38112	11487
9.38683	6925
9.39255	4399
9.39828	3813
9.40400	2531
9.40972	6893
9.41545	35523
9.42117	163840
9.42688	524531
9.43262	1226399
9.43833	2144290
9.44405	2838828
9.44977	2500606
9.45550	1372663
9.46122	560988
9.46693	257502
9.47267	174293
9.47838	136544
9.48410	107553
9.48983	88329
9.49555	71893
9.50127	58285
9.50700	55471
9.51272	51033
9.51843	43585
9.52417	40905
9.52988	36062
9.53560	30993
9.54133	29056
9.54705	27333
9.55277	30610
9.55850	32386
9.56422	29553
9.56993	26997
9.57567	24087
9.58138	22283
9.58710	21093
9.59283	19325
9.59855	18948
9.60427	20972
9.61000	23408
9.61572	23228
9.62143	23237
9.62715	18067
9.63288	14863
9.63860	14547
9.64432	14976
9.65005	15371
9.65577	17517
9.66148	18668
9.66722	16960
9.67293	15911
9.67865	15575
9.68438	12777
9.69010	15333
9.69582	21990
9.70155	31800
9.70727	33726
9.71298	29718
9.71872	19775
9.72443	16717
9.73015	14433
9.73588	13668
9.74160	14807
9.74732	15394
9.75305	15793
9.75877	15646
9.76448	15378
9.77022	17538
9.77593	17596
9.78165	14988
9.78737	11936
9.79310	10794
9.79882	12403
9.80453	15568
9.81027	18709
9.81598	20697
9.82170	20820
9.82743	17930
9.83315	22873
9.83887	31008
9.84460	46607
9.85032	63914
9.85603	73129
9.86177	73801
9.86748	59367
9.87320	44004
9.87893	27456
9.88465	17920
9.89037	13809
9.89610	11732
9.90182	11783
9.90753	13981
9.91327	13425
9.91898	13536
9.92470	17520
9.93043	19634
9.93615	20424
9.94187	20091
9.94760	20159
9.95332	25849
9.95903	35121
9.96475	37791
9.97048	34436
9.97620	23226
9.98192	17919
9.98765	17058
9.99337	13669
9.99908	11963
10.00482	10842
10.01053	9812
10.01625	12403
10.02198	12769
10.02770	15812
10.03342	18440
10.03915	19282
10.04487	22924
10.05058	23045
10.05632	23112
10.06203	21330
10.06775	18060
10.07348	12392
10.07920	11161
10.08492	10529
10.09065	9472
10.09637	8551
10.10208	9561
10.10782	11175
10.11353	13900
10.11925	19158
10.12498	24002
10.13070	22985
10.13642	21259
10.14213	18336
10.14787	15949
10.15358	12092
10.15930	12799
10.16503	10261
10.17075	12037
10.17647	11061
10.18220	10391
10.18792	8991
10.19363	10528
10.19937	11733
10.20508	13604
10.21080	12060
10.21653	12902
10.22225	13319
10.22797	14394
10.23370	20441
10.23942	22905
10.24513	24849
10.25087	21691
10.25658	18913
10.26230	16968
10.26803	19031
10.27375	19031
10.27947	18770
10.28520	15975
10.29092	14504
10.29663	11851
10.30237	11421
10.30808	11726
10.31380	12105
10.31952	12253
10.32525	9748
10.33097	9957
10.33668	9112
10.34242	8066
10.34813	8310
10.35385	9782
10.35958	10196
10.36530	11486
10.37102	12505
10.37675	11006
10.38247	9067
10.38818	7858
10.39392	9267
10.39963	7821
10.40535	9590
10.41108	9047
10.41680	8199
10.42252	9128
10.42825	11241
10.43397	14156
10.43968	15692
10.44542	15844
10.45113	12656
10.45685	11301
10.46258	12881
10.46830	11538
10.47402	12905
10.47975	14089
10.48547	14381
10.49118	11413
10.49690	10178
10.50263	8869
10.50835	9298
10.51407	10045
10.51980	11122
10.52552	14470
10.53123	15157
10.53697	14351
10.54268	14255
10.54840	13432
10.55413	12518
10.55985	13659
10.56557	13236
10.57130	14001
10.57702	12261
10.58273	12136
10.58847	13225
10.59418	14121
10.59990	14450
10.60563	10324
10.61135	11643
10.61707	10550
10.62280	11317
10.62852	11823
10.63423	10550
10.63997	8496
10.64568	9249
10.65140	8781
10.65713	8407
10.66285	6869
10.66857	7968
10.67428	9550
10.68002	9058
10.68573	10568
10.69145	12074
10.69718	11818
10.70290	12232
10.70862	9524
10.71435	9690
10.72007	10022
10.72578	10242
10.73152	9148
10.73723	10659
10.74295	11401
10.74868	14610
10.75440	22531
10.76012	35101
10.76585	39459
10.77157	34227
10.77728	29363
10.78302	21744
10.78873	16187
10.79445	13031
10.80018	10004
10.80590	11884
10.81162	12461
10.81735	12360
10.82307	16976
10.82878	20079
10.83452	24776
10.84023	27539
10.84595	21919
10.85167	16652
10.85740	13051
10.86312	12948
10.86883	12656
10.87457	12598
10.88028	13604
10.88600	14096
10.89173	18279
10.89745	21785
10.90317	20946
10.90890	16788
10.91462	13762
10.92033	12064
10.92607	12788
10.93178	12688
10.93750	13152
10.94323	15995
10.94895	23290
10.95467	29959
10.96040	33582
10.96612	31951
10.97183	24641
10.97757	17909
10.98328	14023
10.98900	12644
10.99473	14215
11.00045	17860
11.00617	23921
11.01190	22536
11.01762	17496
11.02333	11933
11.02905	12284
11.03478	10202
11.04050	12092
11.04622	12663
11.05195	13776
11.05767	14397
11.06338	14611
11.06912	15170
11.07483	15564
11.08055	17843
11.08628	18046
11.09200	16663
11.09772	18403
11.10345	23274
11.10917	23661
11.11488	21751
11.12062	17635
11.12633	15605
11.13205	13754
11.13778	11292
11.14350	12898
11.14922	14814
11.15495	16463
11.16067	13445
11.16638	13152
11.17212	12585
11.17783	12444
11.18355	10654
11.18928	11123
11.19500	12883
11.20072	12133
11.20643	16166
11.21217	26327
11.21788	36084
11.22360	54244
11.22933	69895
11.23505	69335
11.24077	56628
11.24650	39711
11.25222	32410
11.25793	26244
11.26367	24239
11.26938	19736
11.27510	20386
11.28083	16503
11.28655	13727
11.29227	13503
11.29800	14305
11.30372	15160
11.30943	14920
11.31517	16641
11.32088	18367
11.32660	21005
11.33233	22150
11.33805	20795
11.34377	19316
11.34950	18197
11.35522	17483
11.36093	17201
11.36667	18756
11.37238	19197
11.37810	18436
11.38382	25083
11.38955	32945
11.39527	54457
11.40098	115688
11.40672	193290
11.41243	235994
11.41815	201468
11.42388	141978
11.42960	103279
11.43532	80539
11.44105	69290
11.44677	60967
11.45248	55304
11.45822	57216
11.46393	53938
11.46965	53587
11.47538	54032
11.48110	53979
11.48682	55574
11.49255	70465
11.49827	102061
11.50398	155654
11.50972	172848
11.51543	148252
11.52115	103906
11.52688	83630
11.53260	69679
11.53832	69000
11.54405	67118
11.54977	66592
11.55548	64061
11.56120	67048
11.56693	63863
11.57265	62616
11.57837	61691
11.58410	60692
11.58982	64059
11.59553	62366
11.60127	57688
11.60698	56533
11.61270	51711
11.61843	52909
11.62415	51371
11.62987	52493
11.63560	53650
11.64132	54416
11.64703	51639
11.65277	48405
11.65848	45466
11.66420	41167
11.66993	38433
11.67565	36864
11.68137	36845
11.68710	35453
11.69282	32183
11.69853	31312
11.70427	32568
11.70998	29891
11.71570	30700
11.72143	29541
11.72715	34134
11.73287	37815
11.73858	40249
11.74432	35548
11.75003	27791
11.75575	23539
11.76148	23436
11.76720	20279
11.77292	20583
11.77865	18927
11.78437	19258
11.79008	18336
11.79582	17571
11.80153	17346
11.80725	17154
11.81298	17069
11.81870	16508
11.82442	16886
11.83015	16505
11.83587	15959
11.84158	16547
11.84732	17111
11.85303	18729
11.85875	20500
11.86448	23280
11.87020	18178
11.87592	16885
11.88165	15957
11.88737	16432
11.89308	14385
11.89882	17381
11.90453	15231
11.91025	16736
11.91597	15416
11.92170	15490
11.92742	16232
11.93313	16621
11.93887	16820
11.94458	17545
11.95030	18570
11.95603	15909
11.96175	17358
11.96747	18603
11.97320	19514
11.97892	19586
11.98463	20603
11.99037	18703
11.99608	18405
12.00180	17901
12.00753	19714
12.01325	21313
12.01897	21418
12.02470	20031
12.03042	19705
12.03613	19431
12.04187	20940
12.04758	19725
12.05330	17320
12.05903	20644
12.06475	21172
12.07047	19974
12.07620	21287
12.08192	24786
12.08763	25950
12.09335	25135
12.09908	26131
12.10480	28601
12.11052	30877
12.11625	34464
12.12197	35136
12.12768	35736
12.13342	32080
12.13913	33668
12.14485	35557
12.15058	32671
12.15630	27468
12.16202	25465
12.16775	22804
12.17347	23361
12.17918	25175
12.18492	28552
12.19063	28535
12.19635	21758
12.20208	20371
12.20780	19790
12.21352	18881
12.21925	21486
12.22497	21456
12.23068	24575
12.23642	26304
12.24213	27142
12.24785	30762
12.25358	33749
12.25930	32016
12.26502	35242
12.27073	41821
12.27647	56856
12.28218	71162
12.28790	71890
12.29363	64052
12.29935	47864
12.30507	34529
12.31080	27775
12.31652	30805
12.32223	64942
12.32797	125182
12.33368	163648
12.33940	152323
12.34513	122992
12.35085	103698
12.35657	86367
12.36230	82045
12.36802	90841
12.37373	107337
12.37947	109449
12.38518	95843
12.39090	77781
12.39663	64368
12.40235	56722
12.40807	54668
12.41380	51878
12.41952	47584
12.42523	45878
12.43097	45623
12.43668	47126
12.44240	56673
12.44812	79169
12.45385	95366
12.45957	91316
12.46528	82529
12.47102	76198
12.47673	70255
12.48245	69278
12.48818	60935
12.49390	57413
12.49962	53757
12.50535	69386
12.51107	123540
12.51678	238085
12.52252	378823
12.52823	432005
12.53395	353252
12.53968	227997
12.54540	124235
12.55112	73430
12.55685	53916
12.56257	53968
12.56828	51325
12.57402	51825
12.57973	54791
12.58545	67270
12.59118	115943
12.59690	280593
12.60262	638380
12.60835	1040481
12.61407	1246053
12.61978	1004815
12.62550	565720
12.63123	282706
12.63695	185156
12.64267	151221
12.64840	115696
12.65412	87567
12.65983	70640
12.66557	63887
12.67128	58314
12.67700	57816
12.68273	54422
12.68845	53331
12.69417	50075
12.69990	47987
12.70562	44651
12.71133	46633
12.71707	46411
12.72278	48334
12.72850	50362
12.73423	52690
12.73995	52458
12.74567	53618
12.75140	48898
12.75712	47261
12.76283	45689
12.76857	46040
12.77428	44656
12.78000	45940
12.78573	40847
12.79145	39343
12.79717	40003
12.80288	39102
12.80862	39849
12.81433	38766
12.82005	38540
12.82578	41014
12.83150	40772
12.83722	40536
12.84295	38800
12.84867	39675
12.85438	36355
12.86012	37817
12.86583	34666
12.87155	34987
12.87728	37880
12.88300	38630
12.88872	42454
12.89445	44507
12.90017	43767
12.90588	40378
12.91162	39104
12.91733	42201
12.92305	46482
12.92878	52881
12.93450	64695
12.94022	74377
12.94595	80900
12.95167	80028
12.95738	78802
12.96312	79661
12.96883	85551
12.97455	84841
12.98027	76405
12.98600	65534
12.99172	55366
12.99743	52122
13.00317	55836
13.00888	58573
13.01460	59604
13.02033	59284
13.02605	59616
13.03177	74904
13.03750	105211
13.04322	162428
13.04893	254145
13.05467	351280
13.06038	456685
13.06610	564547
13.07183	648239
13.07755	623121
13.08327	485924
13.08900	312393
13.09472	188878
13.10043	118024
13.10617	90302
13.11188	84454
13.11760	100576
13.12333	123141
13.12905	129382
13.13477	115939
13.14050	96863
13.14622	81844
13.15193	74810
13.15765	66512
13.16338	64933
13.16910	64238
13.17482	63086
13.18055	60539
13.18627	57985
13.19198	57643
13.19772	56879
13.20343	57767
13.20915	55021
13.21488	58754
13.22060	76649
13.22632	136528
13.23205	260852
13.23777	409105
13.24348	521686
13.24922	504382
13.25493	410314
13.26065	294984
13.26638	223046
13.27210	187738
13.27782	165660
13.28355	147394
13.28927	138610
13.29498	131153
13.30072	128793
13.30643	130421
13.31215	131151
13.31788	120457
13.32360	120168
13.32932	114473
13.33503	112832
13.34077	111287
13.34648	108305
13.35220	105418
13.35793	99852
13.36365	96582
13.36937	94135
13.37510	98042
13.38082	93494
13.38653	93264
13.39227	95196
13.39798	95674
13.40370	95619
13.40943	94508
13.41515	92129
13.42087	90870
13.42660	89620
13.43232	91405
13.43803	86905
13.44377	87739
13.44948	88039
13.45520	86160
13.46093	92596
13.46665	91087
13.47237	91066
13.47810	93798
13.48382	96602
13.48953	96969
13.49527	101046
13.50098	97997
13.50670	96140
13.51242	89659
13.51815	86699
13.52387	88250
13.52958	87335
13.53532	88783
13.54103	91375
13.54675	91290
13.55248	94725
13.55820	93680
13.56392	94533
13.56965	93858
13.57537	94407
13.58108	96297
13.58682	104043
13.59253	107223
13.59825	112300
13.60398	114414
13.60970	118528
13.61542	116693
13.62115	116020
13.62687	114182
13.63258	114922
13.63832	111802
13.64403	111308
13.64975	113149
13.65548	109110
13.66120	114782
13.66692	121743
13.67263	147311
13.67837	201291
13.68408	281777
13.68980	356357
13.69553	368464
13.70125	313246
13.70697	233405
13.71270	167835
13.71842	138361
13.72413	126470
13.72987	124639
13.73558	128785
13.74130	134243
13.74703	140839
13.75275	139385
13.75847	148383
13.76420	189688
13.76992	320037
13.77563	600232
13.78137	1042642
13.78708	1469353
13.79280	1660412
13.79853	1519296
13.80425	1059110
13.80997	595795
13.81570	324405
13.82142	213908
13.82713	173908
13.83287	170117
13.83858	161188
13.84430	146998
13.85003	127353
13.85575	109543
13.86147	96133
13.86718	90205
13.87292	86280
13.87863	84597
13.88435	85287
13.89008	83033
13.89580	85607
13.90152	86521
13.90725	96217
13.91297	105838
13.91868	112112
13.92442	117218
13.93013	112329
13.93585	104482
13.94158	98627
13.94730	93360
13.95302	86778
13.95875	85322
13.96447	85148
13.97018	81642
13.97592	80577
13.98163	81848
13.98735	80672
13.99308	81771
13.99880	73205
14.00452	72151
14.01025	73115
14.01597	71141
14.02168	73369
14.02742	68928
14.03313	70284
14.03885	71179
14.04457	64920
14.05030	65360
14.05602	64368
14.06173	64102
14.06747	64037
14.07318	63465
14.07890	61814
14.08463	61888
14.09035	60850
14.09607	60105
14.10180	62317
14.10752	62837
14.11323	60763
14.11897	64242
14.12468	63808
14.13040	65198
14.13613	61005
14.14185	64400
14.14757	64701
14.15330	65859
14.15902	65103
14.16473	64141
14.17047	63005
14.17618	64813
14.18190	66529
14.18763	67450
14.19335	72179
14.19907	83742
14.20480	97559
14.21052	118686
14.21623	132258
14.22195	140843
14.22768	132287
14.23340	113603
14.23912	97984
14.24485	90034
14.25057	88127
14.25628	85606
14.26202	84206
14.26773	81127
14.27345	75701
14.27918	70778
14.28490	66416
14.29062	66823
14.29635	62282
14.30207	65655
14.30778	65821
14.31352	67194
14.31923	69978
14.32495	69235
14.33068	70545
14.33640	67348
14.34212	62515
14.34785	66163
14.35357	69221
14.35928	75764
14.36502	93192
14.37073	117695
14.37645	150028
14.38217	182276
14.38790	198291
14.39362	193760
14.39933	170681
14.40507	146688
14.41078	126250
14.41650	111188
14.42223	103948
14.42795	97741
14.43367	93697
14.43940	90429
14.44512	92588
14.45083	95699
14.45657	118058
14.46228	151921
14.46800	190984
14.47373	219746
14.47945	232887
14.48517	214421
14.49090	183064
14.49662	151618
14.50233	138318
14.50807	153411
14.51378	205220
14.51950	282480
14.52523	336572
14.53095	361252
14.53667	345649
14.54240	297909
14.54812	254427
14.55383	216838
14.55955	186945
14.56528	178249
14.57100	166201
14.57672	158594
14.58245	149089
14.58817	141734
14.59388	130913
14.59962	126485
14.60533	126297
14.61105	125850
14.61678	119704
14.62250	119476
14.62822	115800
14.63395	117354
14.63967	113164
14.64538	110659
14.65112	113594
14.65683	111389
14.66255	114333
14.66828	115244
14.67400	113816
14.67972	116465
14.68545	118880
14.69117	120476
14.69688	122919
14.70262	124521
14.70833	123714
14.71405	127014
14.71978	126346
14.72550	126857
14.73122	127624
14.73693	128161
14.74267	125363
14.74838	127564
14.75410	124860
14.75983	123443
14.76555	117657
14.77127	120187
14.77700	120085
14.78272	117789
14.78843	118893
14.79417	113813
14.79988	108678
14.80560	108474
14.81133	106527
14.81705	103414
14.82277	101152
14.82850	99474
14.83422	93314
14.83993	96312
14.84567	94061
14.85138	94220
14.85710	94324
14.86283	92014
14.86855	92643
14.87427	90827
14.88000	90762
14.88572	91710
14.89143	89253
14.89717	87826
14.90288	85091
14.90860	83748
14.91432	84718
14.92005	83192
14.92577	82012
14.93148	81364
14.93722	80932
14.94293	79396
14.94865	78041
14.95438	79633
14.96010	80441
14.96582	76036
14.97155	79627
14.97727	78377
14.98298	74983
14.98872	75762
14.99443	78149
15.00015	74764
15.00588	73420
15.01160	76308
15.01732	75173
15.02305	73527
15.02877	71375
15.03448	74616
15.04022	69783
15.04593	69878
15.05165	74166
15.05738	69468
15.06310	67197
15.06882	67074
15.07455	69494
15.08027	68154
15.08598	69260
15.09172	67060
15.09743	64065
15.10315	67311
15.10887	63560
15.11460	63698
15.12032	64631
15.12603	65121
15.13177	64612
15.13748	64755
15.14320	66866
15.14893	70668
15.15465	72696
15.16037	75976
15.16610	85011
15.17182	90806
15.17753	96275
15.18327	99185
15.18898	99207
15.19470	90641
15.20043	82665
15.20615	76625
15.21187	69931
15.21760	71473
15.22332	67521
15.22903	64772
15.23477	64573
15.24048	64792
15.24620	63772
15.25193	63759
15.25765	65151
15.26337	61902
15.26908	64633
15.27482	63780
15.28053	72265
15.28625	84850
15.29198	95049
15.29770	102969
15.30342	107584
15.30915	102992
15.31487	95196
15.32058	84138
15.32632	73141
15.33203	66687
15.33775	61088
15.34348	60614
15.34920	55196
15.35492	56198
15.36065	53332
15.36637	52292
15.37208	51771
15.37782	52465
15.38353	51481
15.38925	50514
15.39498	50758
15.40070	51332
15.40642	49231
15.41215	49342
15.41787	48605
15.42358	48493
15.42932	51216
15.43503	49843
15.44075	50865
15.44647	53026
15.45220	52144
15.45792	54681
15.46363	54656
15.46937	53936
15.47508	54885
15.48080	54931
15.48653	52241
15.49225	53918
15.49797	51690
15.50370	51796
15.50942	54452
15.51513	53267
15.52087	49908
15.52658	50264
15.53230	52303
15.53803	49941
15.54375	47567
15.54947	49001
15.55520	50516
15.56092	49837
15.56663	48225
15.57237	48254
15.57808	47050
15.58380	46812
15.58953	47755
15.59525	47472
15.60097	48794
15.60670	47761
15.61242	48105
15.61813	48846
15.62385	48471
15.62958	48733
15.63530	48624
15.64102	45550
15.64675	45361
15.65247	48899
15.65818	45087
15.66392	46029
15.66963	48532
15.67535	46090
15.68108	47016
15.68680	44744
15.69252	43802
15.69825	45261
15.70397	42331
15.70968	46106
15.71542	43165
15.72113	44780
15.72685	47471
15.73258	44985
15.73830	44771
15.74402	46342
15.74975	47287
15.75547	46947
15.76118	48832
15.76692	49957
15.77263	52782
15.77835	52157
15.78408	54224
15.78980	54149
15.79552	50057
15.80123	49585
15.80697	46796
15.81268	44146
15.81840	45093
15.82413	44566
15.82985	44681
15.83557	42066
15.84130	43458
15.84702	43514
15.85273	43389
15.85847	43519
15.86418	45346
15.86990	44734
15.87563	45102
15.88135	44142
15.88707	47301
15.89280	48299
15.89852	49932
15.90423	51756
15.90997	50400
15.91568	51238
15.92140	50564
15.92713	51501
15.93285	46573
15.93857	45554
15.94430	45010
15.95002	41782
15.95573	42781
15.96147	42126
15.96718	43251
15.97290	44035
15.97862	43678
15.98435	43839
15.99007	43762
15.99578	48348
16.00152	47046
16.00723	47701
16.01295	48481
16.01868	47047
16.02440	46345
16.03012	45928
16.03585	46287
16.04157	45717
16.04728	43779
16.05302	44601
16.05873	44722
16.06445	42083
16.07018	43205
16.07590	42275
16.08162	42412
16.08735	42648
16.09307	44522
16.09878	44110
16.10452	44400
16.11023	43526
16.11595	45647
16.12168	47993
16.12740	46255
16.13312	47859
16.13885	47193
16.14457	47335
16.15028	47991
16.15600	47289
16.16173	48853
16.16745	48002
16.17317	44952
16.17890	46430
16.18462	44279
16.19033	44466
16.19607	41759
16.20178	41845
16.20750	40965
16.21323	42362
16.21895	42179
16.22467	40707
16.23040	43542
16.23612	40976
16.24183	42643
16.24757	38946
16.25328	40228
16.25900	38597
16.26473	41328
16.27045	40814
16.27617	38367
16.28190	38269
16.28762	40235
16.29333	40552
16.29907	39055
16.30478	40098
16.31050	40478
16.31623	38627
16.32195	37497
16.32767	40077
16.33338	40143
16.33912	40707
16.34483	42380
16.35055	42569
16.35628	42775
16.36200	48729
16.36772	51145
16.37345	55994
16.37917	58507
16.38488	61483
16.39062	57589
16.39633	56842
16.40205	52693
16.40778	50295
16.41350	48911
16.41922	44601
16.42495	38427
16.43067	40436
16.43638	39566
16.44212	38372
16.44783	40316
16.45355	39528
16.45928	37565
16.46500	37413
16.47072	36537
16.47645	38469
16.48217	38827
16.48788	38329
16.49362	36441
16.49933	35235
16.50505	36719
16.51077	37065
16.51650	36725
16.52222	36639
16.52793	38900
16.53367	36076
16.53938	35080
16.54510	39094
16.55083	37541
16.55655	34920
16.56227	34465
16.56800	37430
16.57372	34139
16.57943	35162
16.58517	36198
16.59088	33707
16.59660	33941
16.60233	32916
16.60805	34072
16.61377	31631
16.61950	33511
16.62522	32036
16.63093	33834
16.63667	31980
16.64238	32461
16.64810	32396
16.65383	31247
16.65955	30692
16.66527	31015
16.67100	32306
16.67672	31735
16.68243	33453
16.68815	35208
16.69388	31636
16.69960	32594
16.70532	33316
16.71105	36093
16.71677	35039
16.72248	36012
16.72822	37527
16.73393	34066
16.73965	38611
16.74538	37472
16.75110	37157
16.75682	40795
16.76255	41000
16.76827	41861
16.77398	41135
16.77972	42162
16.78543	41214
16.79115	43440
16.79688	41153
16.80260	41885
16.80832	40713
16.81405	39432
16.81977	39130
16.82548	42117
16.83122	42231
16.83693	41195
16.84265	41464
16.84838	41902
16.85410	41688
16.85982	40658
16.86553	41333
16.87127	41551
16.87698	41728
16.88270	42104
16.88843	42885
16.89415	40087
16.89987	39207
16.90560	42580
16.91132	43912
16.91703	42193
16.92277	42800
16.92848	43285
16.93420	41071
16.93993	39914
16.94565	39745
16.95137	37408
16.95710	38453
16.96282	36352
16.96853	35677
16.97427	32799
16.97998	35034
16.98570	33718
16.99143	31885
16.99715	33768
17.00287	33247
17.00860	34941
17.01432	33008
17.02003	33179
17.02577	32722
17.03148	36400
17.03720	32199
17.04292	33028
17.04865	32031
17.05437	33000
17.06008	31977
17.06582	33865
17.07153	31345
17.07725	31789
17.08298	29009
17.08870	30224
17.09442	33012
17.10015	31796
17.10587	30358
17.11158	30544
17.11732	30429
17.12303	30685
17.12875	30027
17.13448	30902
17.14020	31005
17.14592	33288
17.15165	31264
17.15737	31779
17.16308	33192
17.16882	33229
17.17453	31914
17.18025	31442
17.18598	29893
17.19170	29687
17.19742	28863
17.20315	29086
17.20887	29948
17.21458	28016
17.22030	29224
17.22603	28978
17.23175	28916
17.23747	27889
17.24320	32783
