D:\MassHunter\GCMS\1\data\Mariana\AlkenylphenolsJan12\T1F7.D Thu Jan 13 14:22:33 2022
Start of data points
3.29292	194
3.29865	408
3.30437	0
3.31008	222
3.31582	0
3.32153	234
3.32725	0
3.33298	0
3.33870	229
3.34442	0
3.35015	223
3.35587	185
3.36158	263
3.36732	185
3.37303	163
3.37875	275
3.38448	0
3.39020	0
3.39592	0
3.40165	152
3.40737	158
3.41308	0
3.41882	0
3.42453	0
3.43025	0
3.43597	186
3.44170	0
3.44742	152
3.45313	0
3.45887	336
3.46458	155
3.47030	0
3.47603	258
3.48175	157
3.48747	204
3.49320	396
3.49892	233
3.50463	236
3.51037	237
3.51608	229
3.52180	367
3.52753	0
3.53325	378
3.53897	159
3.54470	204
3.55042	191
3.55613	227
3.56187	158
3.56758	207
3.57330	182
3.57903	0
3.58475	218
3.59047	391
3.59620	390
3.60192	599
3.60763	191
3.61335	188
3.61908	237
3.62480	363
3.63052	195
3.63625	391
3.64197	0
3.64768	196
3.65342	273
3.65913	265
3.66485	277
3.67058	217
3.67630	0
3.68202	187
3.68775	219
3.69347	175
3.69918	0
3.70492	152
3.71063	0
3.71635	0
3.72208	172
3.72780	0
3.73352	0
3.73925	0
3.74497	478
3.75068	224
3.75642	210
3.76213	154
3.76785	360
3.77358	0
3.77930	246
3.78502	0
3.79073	175
3.79647	0
3.80218	189
3.80790	0
3.81363	152
3.81935	171
3.82507	0
3.83080	164
3.83652	197
3.84223	266
3.84797	0
3.85368	180
3.85940	215
3.86513	0
3.87085	170
3.87657	0
3.88230	194
3.88802	0
3.89373	0
3.89947	0
3.90518	0
3.91090	187
3.91663	194
3.92235	477
3.92807	962
3.93380	642
3.93952	252
3.94523	0
3.95095	205
3.95668	0
3.96240	0
3.96812	0
3.97385	0
3.97957	0
3.98528	0
3.99102	0
3.99673	165
4.00245	177
4.00818	175
4.01390	211
4.01962	187
4.02535	0
4.03107	197
4.03678	0
4.04252	0
4.04823	318
4.05395	153
4.05968	0
4.06540	0
4.07112	0
4.07685	0
4.08257	0
4.08828	0
4.09402	0
4.09973	0
4.10545	155
4.11118	0
4.11690	167
4.12262	0
4.12833	0
4.13407	0
4.13978	0
4.14550	0
4.15123	0
4.15695	0
4.16267	0
4.16840	0
4.17412	161
4.17983	0
4.18557	0
4.19128	184
4.19700	315
4.20273	0
4.20845	167
4.21417	0
4.21990	422
4.22562	546
4.23133	722
4.23707	163
4.24278	0
4.24850	0
4.25423	0
4.25995	0
4.26567	0
4.27140	152
4.27712	0
4.28283	0
4.28857	0
4.29428	202
4.30000	0
4.30572	0
4.31145	0
4.31717	0
4.32288	151
4.32862	0
4.33433	0
4.34005	160
4.34578	0
4.35150	0
4.35722	0
4.36295	0
4.36867	0
4.37438	0
4.38012	0
4.38583	159
4.39155	0
4.39728	0
4.40300	0
4.40872	0
4.41445	0
4.42017	0
4.42588	0
4.43162	0
4.43733	0
4.44305	155
4.44878	0
4.45450	307
4.46022	164
4.46595	0
4.47167	0
4.47738	0
4.48312	0
4.48883	0
4.49455	0
4.50027	0
4.50600	0
4.51172	0
4.51743	0
4.52317	0
4.52888	0
4.53460	0
4.54033	0
4.54605	0
4.55177	0
4.55750	0
4.56322	0
4.56893	0
4.57467	0
4.58038	160
4.58610	0
4.59183	0
4.59755	0
4.60327	0
4.60900	171
4.61472	0
4.62043	0
4.62617	0
4.63188	0
4.63760	0
4.64333	0
4.64905	0
4.65477	0
4.66048	0
4.66622	0
4.67193	0
4.67765	0
4.68338	0
4.68910	0
4.69482	0
4.70055	0
4.70627	425
4.71198	1958
4.71772	1606
4.72343	1642
4.72915	953
4.73488	955
4.74060	0
4.74632	201
4.75205	171
4.75777	0
4.76348	161
4.76922	192
4.77493	165
4.78065	0
4.78638	0
4.79210	0
4.79782	0
4.80355	0
4.80927	0
4.81498	0
4.82072	213
4.82643	0
4.83215	0
4.83787	0
4.84360	0
4.84932	0
4.85503	159
4.86077	155
4.86648	173
4.87220	0
4.87793	0
4.88365	0
4.88937	0
4.89510	0
4.90082	0
4.90653	0
4.91227	0
4.91798	0
4.92370	0
4.92943	0
4.93515	0
4.94087	0
4.94660	0
4.95232	0
4.95803	0
4.96377	0
4.96948	0
4.97520	0
4.98093	0
4.98665	0
4.99237	0
4.99810	0
5.00382	0
5.00953	0
5.01525	0
5.02098	0
5.02670	0
5.03242	0
5.03815	0
5.04387	0
5.04958	0
5.05532	0
5.06103	0
5.06675	0
5.07248	0
5.07820	0
5.08392	0
5.08965	0
5.09537	0
5.10108	0
5.10682	0
5.11253	0
5.11825	0
5.12398	0
5.12970	0
5.13542	0
5.14115	0
5.14687	0
5.15258	0
5.15832	0
5.16403	0
5.16975	198
5.17548	0
5.18120	0
5.18692	0
5.19263	0
5.19837	0
5.20408	0
5.20980	0
5.21553	171
5.22125	0
5.22697	0
5.23270	0
5.23842	0
5.24413	0
5.24987	0
5.25558	0
5.26130	0
5.26703	0
5.27275	0
5.27847	0
5.28420	0
5.28992	0
5.29563	0
5.30137	0
5.30708	0
5.31280	0
5.31853	0
5.32425	0
5.32997	0
5.33570	0
5.34142	0
5.34713	0
5.35287	0
5.35858	0
5.36430	0
5.37002	0
5.37575	0
5.38147	0
5.38718	0
5.39292	0
5.39863	160
5.40435	0
5.41008	0
5.41580	0
5.42152	0
5.42725	0
5.43297	0
5.43868	0
5.44442	150
5.45013	0
5.45585	0
5.46158	353
5.46730	0
5.47302	229
5.47875	495
5.48447	170
5.49018	0
5.49592	372
5.50163	188
5.50735	155
5.51308	0
5.51880	0
5.52452	0
5.53025	0
5.53597	0
5.54168	163
5.54740	0
5.55313	0
5.55885	0
5.56457	0
5.57030	0
5.57602	0
5.58173	0
5.58747	0
5.59318	0
5.59890	0
5.60463	0
5.61035	0
5.61607	0
5.62180	169
5.62752	450
5.63323	651
5.63897	337
5.64468	224
5.65040	0
5.65613	0
5.66185	0
5.66757	0
5.67330	0
5.67902	0
5.68473	0
5.69047	0
5.69618	0
5.70190	157
5.70763	0
5.71335	0
5.71907	0
5.72478	0
5.73052	154
5.73623	0
5.74195	159
5.74768	0
5.75340	567
5.75912	1337
5.76485	1694
5.77057	1556
5.77628	1657
5.78202	1712
5.78773	1834
5.79345	1775
5.79918	1799
5.80490	1958
5.81062	1705
5.81635	1734
5.82207	1297
5.82778	1305
5.83352	1238
5.83923	870
5.84495	886
5.85068	1028
5.85640	937
5.86212	674
5.86785	578
5.87357	712
5.87928	681
5.88502	676
5.89073	542
5.89645	785
5.90217	787
5.90790	260
5.91362	235
5.91933	398
5.92507	459
5.93078	407
5.93650	747
5.94223	179
5.94795	639
5.95367	303
5.95940	165
5.96512	597
5.97083	473
5.97657	247
5.98228	176
5.98800	223
5.99373	154
5.99945	166
6.00517	189
6.01090	157
6.01662	170
6.02233	0
6.02807	0
6.03378	174
6.03950	224
6.04523	322
6.05095	181
6.05667	335
6.06240	243
6.06812	195
6.07383	189
6.07955	367
6.08528	194
6.09100	176
6.09672	198
6.10245	159
6.10817	0
6.11388	253
6.11962	175
6.12533	345
6.13105	177
6.13678	200
6.14250	367
6.14822	170
6.15395	166
6.15967	0
6.16538	0
6.17112	220
6.17683	0
6.18255	194
6.18828	154
6.19400	0
6.19972	185
6.20545	0
6.21117	206
6.21688	0
6.22262	0
6.22833	0
6.23405	154
6.23978	185
6.24550	176
6.25122	0
6.25693	0
6.26267	0
6.26838	0
6.27410	0
6.27983	0
6.28555	0
6.29127	159
6.29700	0
6.30272	0
6.30843	0
6.31417	0
6.31988	0
6.32560	216
6.33133	0
6.33705	168
6.34277	0
6.34850	0
6.35422	0
6.35993	317
6.36567	363
6.37138	155
6.37710	0
6.38283	171
6.38855	442
6.39427	492
6.40000	474
6.40572	193
6.41143	192
6.41717	367
6.42288	157
6.42860	0
6.43432	0
6.44005	429
6.44577	0
6.45148	0
6.45722	0
6.46293	0
6.46865	0
6.47438	0
6.48010	537
6.48582	1162
6.49155	1421
6.49727	1136
6.50298	729
6.50872	157
6.51443	243
6.52015	385
6.52588	0
6.53160	0
6.53732	0
6.54305	163
6.54877	0
6.55448	0
6.56022	157
6.56593	0
6.57165	0
6.57738	0
6.58310	0
6.58882	0
6.59455	184
6.60027	0
6.60598	158
6.61170	0
6.61743	153
6.62315	0
6.62887	493
6.63460	1065
6.64032	1535
6.64603	1628
6.65177	1493
6.65748	1857
6.66320	1537
6.66893	1680
6.67465	1604
6.68037	1539
6.68610	1270
6.69182	1250
6.69753	1244
6.70327	972
6.70898	1104
6.71470	1262
6.72043	701
6.72615	657
6.73187	753
6.73760	634
6.74332	665
6.74903	627
6.75477	474
6.76048	708
6.76620	645
6.77193	320
6.77765	456
6.78337	376
6.78908	538
6.79482	216
6.80053	444
6.80625	323
6.81198	377
6.81770	225
6.82342	0
6.82915	0
6.83487	208
6.84058	167
6.84632	445
6.85203	0
6.85775	214
6.86348	159
6.86920	171
6.87492	213
6.88065	181
6.88637	0
6.89208	178
6.89782	0
6.90353	0
6.90925	380
6.91498	0
6.92070	171
6.92642	0
6.93215	239
6.93787	279
6.94358	159
6.94932	0
6.95503	192
6.96075	326
6.96647	713
6.97220	926
6.97792	810
6.98363	934
6.98937	503
6.99508	722
7.00080	497
7.00653	179
7.01225	0
7.01797	180
7.02370	488
7.02942	220
7.03513	0
7.04087	440
7.04658	0
7.05230	0
7.05803	0
7.06375	0
7.06947	0
7.07520	203
7.08092	0
7.08663	150
7.09237	208
7.09808	0
7.10380	0
7.10953	158
7.11525	466
7.12097	957
7.12670	642
7.13242	353
7.13813	190
7.14385	329
7.14958	1041
7.15530	155
7.16102	327
7.16675	358
7.17247	367
7.17818	165
7.18392	188
7.18963	179
7.19535	505
7.20108	161
7.20680	0
7.21252	172
7.21825	158
7.22397	0
7.22968	183
7.23542	161
7.24113	175
7.24685	0
7.25258	215
7.25830	0
7.26402	0
7.26975	166
7.27547	157
7.28118	0
7.28692	201
7.29263	578
7.29835	518
7.30408	357
7.30980	163
7.31552	402
7.32123	176
7.32697	183
7.33268	157
7.33840	514
7.34413	0
7.34985	157
7.35557	153
7.36130	0
7.36702	0
7.37273	313
7.37847	184
7.38418	170
7.38990	171
7.39563	0
7.40135	1226
7.40707	1298
7.41280	2209
7.41852	1969
7.42423	1000
7.42997	854
7.43568	523
7.44140	0
7.44713	249
7.45285	205
7.45857	0
7.46430	0
7.47002	0
7.47573	371
7.48147	170
7.48718	0
7.49290	160
7.49862	0
7.50435	0
7.51007	0
7.51578	152
7.52152	0
7.52723	0
7.53295	154
7.53868	167
7.54440	174
7.55012	0
7.55585	0
7.56157	0
7.56728	0
7.57302	178
7.57873	0
7.58445	189
7.59018	323
7.59590	156
7.60162	1809
7.60735	2095
7.61307	1867
7.61878	798
7.62452	0
7.63023	248
7.63595	714
7.64168	466
7.64740	547
7.65312	429
7.65885	799
7.66457	581
7.67028	376
7.67600	408
7.68173	367
7.68745	408
7.69317	445
7.69890	1147
7.70462	1286
7.71033	156
7.71607	391
7.72178	651
7.72750	411
7.73323	226
7.73895	334
7.74467	186
7.75040	418
7.75612	0
7.76183	712
7.76757	218
7.77328	412
7.77900	0
7.78473	0
7.79045	0
7.79617	0
7.80190	167
7.80762	165
7.81333	365
7.81907	627
7.82478	434
7.83050	474
7.83623	814
7.84195	542
7.84767	610
7.85338	1020
7.85912	1408
7.86483	686
7.87055	481
7.87628	644
7.88200	880
7.88772	694
7.89345	1172
7.89917	862
7.90488	820
7.91062	322
7.91633	492
7.92205	539
7.92778	415
7.93350	217
7.93922	187
7.94495	504
7.95067	535
7.95638	2389
7.96212	4114
7.96783	2603
7.97355	2138
7.97928	2037
7.98500	1820
7.99072	1421
7.99645	1188
8.00217	195
8.00788	681
8.01362	1010
8.01933	1932
8.02505	1415
8.03077	0
8.03650	0
8.04222	396
8.04793	196
8.05367	0
8.05938	0
8.06510	497
8.07083	437
8.07655	795
8.08227	672
8.08800	336
8.09372	157
8.09943	165
8.10517	205
8.11088	325
8.11660	0
8.12233	313
8.12805	0
8.13377	446
8.13950	175
8.14522	534
8.15093	0
8.15667	1756
8.16238	2577
8.16810	955
8.17383	888
8.17955	314
8.18527	206
8.19100	184
8.19672	230
8.20243	151
8.20815	155
8.21388	314
8.21960	0
8.22532	327
8.23105	0
8.23677	600
8.24248	1548
8.24822	2822
8.25393	2436
8.25965	1712
8.26538	421
8.27110	413
8.27682	1377
8.28255	1967
8.28827	1070
8.29398	832
8.29972	358
8.30543	349
8.31115	685
8.31688	408
8.32260	821
8.32832	490
8.33405	566
8.33977	1022
8.34548	378
8.35122	429
8.35693	382
8.36265	493
8.36838	506
8.37410	274
8.37982	980
8.38553	562
8.39127	1221
8.39698	1084
8.40270	615
8.40843	475
8.41415	1231
8.41987	813
8.42560	783
8.43132	633
8.43703	1187
8.44277	563
8.44848	346
8.45420	1080
8.45993	398
8.46565	944
8.47137	401
8.47710	398
8.48282	722
8.48853	1214
8.49427	1210
8.49998	2357
8.50570	1810
8.51143	2502
8.51715	3644
8.52287	5984
8.52860	3770
8.53432	1405
8.54003	1017
8.54577	356
8.55148	1336
8.55720	1764
8.56292	4041
8.56865	5482
8.57437	6107
8.58008	4431
8.58582	3562
8.59153	5300
8.59725	7190
8.60298	11060
8.60870	13722
8.61442	14954
8.62015	14759
8.62587	15485
8.63158	14001
8.63732	11229
8.64303	10093
8.64875	6957
8.65448	4855
8.66020	2926
8.66592	4326
8.67165	3256
8.67737	2989
8.68308	1610
8.68882	1869
8.69453	1863
8.70025	1880
8.70598	2163
8.71170	2239
8.71742	2326
8.72315	1616
8.72887	971
8.73458	2171
8.74030	2689
8.74603	5310
8.75175	10021
8.75747	16947
8.76320	28780
8.76892	43252
8.77463	44018
8.78037	26533
8.78608	13293
8.79180	9413
8.79753	10445
8.80325	14011
8.80897	15555
8.81470	12338
8.82042	7438
8.82613	3740
8.83187	2893
8.83758	3934
8.84330	4898
8.84903	6347
8.85475	5565
8.86047	3759
8.86620	1864
8.87192	1457
8.87763	965
8.88337	1256
8.88908	1331
8.89480	1417
8.90053	2950
8.90625	3605
8.91197	4153
8.91768	4535
8.92342	4813
8.92913	4380
8.93485	5393
8.94058	6715
8.94630	6914
8.95202	3979
8.95775	3065
8.96347	2437
8.96918	1468
8.97492	2010
8.98063	2673
8.98635	3258
8.99208	4990
8.99780	3442
9.00352	4580
9.00925	3196
9.01497	2607
9.02068	3114
9.02642	2871
9.03213	2358
9.03785	2702
9.04358	3071
9.04930	2729
9.05502	3758
9.06075	4624
9.06647	4963
9.07218	2399
9.07792	3445
9.08363	3495
9.08935	5475
9.09507	5752
9.10080	6305
9.10652	8617
9.11223	10264
9.11797	13359
9.12368	14996
9.12940	13232
9.13513	9086
9.14085	7561
9.14657	7777
9.15230	7466
9.15802	7848
9.16373	5976
9.16947	5607
9.17518	3149
9.18090	2079
9.18663	3708
9.19235	2215
9.19807	2068
9.20380	2113
9.20952	1728
9.21523	2961
9.22097	5211
9.22668	7523
9.23240	7451
9.23813	9951
9.24385	7558
9.24957	6973
9.25528	4642
9.26102	4508
9.26673	3137
9.27245	2428
9.27818	2194
9.28390	2878
9.28962	1669
9.29535	2218
9.30107	2533
9.30678	3237
9.31252	4501
9.31823	3364
9.32395	4176
9.32968	5148
9.33540	5783
9.34112	5367
9.34685	5074
9.35257	7693
9.35828	11922
9.36402	22539
9.36973	27857
9.37545	25546
9.38118	16388
9.38690	8160
9.39262	5471
9.39835	4029
9.40407	3895
9.40978	9903
9.41552	39566
9.42123	167442
9.42695	551824
9.43268	1271748
9.43840	2213023
9.44412	3007379
9.44983	2875020
9.45557	1656285
9.46128	636216
9.46700	289487
9.47273	186646
9.47845	138853
9.48417	108548
9.48990	89511
9.49562	72410
9.50133	61641
9.50707	54299
9.51278	51538
9.51850	47210
9.52423	40929
9.52995	35976
9.53567	32968
9.54140	33339
9.54712	28975
9.55283	31809
9.55857	30726
9.56428	30771
9.57000	29798
9.57573	27165
9.58145	25123
9.58717	22560
9.59290	20086
9.59862	19006
9.60433	21690
9.61007	23359
9.61578	25587
9.62150	25032
9.62722	20533
9.63295	18110
9.63867	16588
9.64438	15696
9.65012	18866
9.65583	19076
9.66155	19233
9.66728	18366
9.67300	18027
9.67872	16127
9.68445	14597
9.69017	17685
9.69588	24101
9.70162	34705
9.70733	37245
9.71305	30652
9.71878	22366
9.72450	17949
9.73022	14587
9.73595	13853
9.74167	15828
9.74738	16480
9.75312	17222
9.75883	16355
9.76455	18721
9.77028	20843
9.77600	18844
9.78172	16173
9.78745	13359
9.79317	11782
9.79888	15311
9.80460	15546
9.81033	19580
9.81605	21842
9.82177	21310
9.82750	20331
9.83322	23358
9.83893	32392
9.84467	47392
9.85038	61093
9.85610	72234
9.86183	74304
9.86755	66143
9.87327	47909
9.87900	31462
9.88472	21231
9.89043	13734
9.89617	14317
9.90188	15346
9.90760	15772
9.91333	17337
9.91905	17565
9.92477	18195
9.93050	19860
9.93622	21184
9.94193	22611
9.94767	24829
9.95338	32285
9.95910	39760
9.96482	39507
9.97055	34938
9.97627	25815
9.98198	22813
9.98772	19759
9.99343	16778
9.99915	15268
10.00488	13442
10.01060	11672
10.01632	14298
10.02205	15228
10.02777	16938
10.03348	20403
10.03922	22642
10.04493	26641
10.05065	29403
10.05638	27863
10.06210	24876
10.06782	18102
10.07355	16403
10.07927	14251
10.08498	12917
10.09072	13640
10.09643	12350
10.10215	11981
10.10788	11975
10.11360	15267
10.11932	21198
10.12505	26885
10.13077	27625
10.13648	26068
10.14220	21614
10.14793	18679
10.15365	18278
10.15937	14867
10.16510	14312
10.17082	14965
10.17653	14562
10.18227	13040
10.18798	10905
10.19370	12906
10.19943	14204
10.20515	15956
10.21087	16217
10.21660	14437
10.22232	16287
10.22803	18653
10.23377	22358
10.23948	27857
10.24520	30084
10.25093	24953
10.25665	22949
10.26237	23307
10.26810	23143
10.27382	25158
10.27953	23837
10.28527	23883
10.29098	16844
10.29670	13077
10.30243	11927
10.30815	15236
10.31387	15228
10.31958	15417
10.32532	12712
10.33103	11533
10.33675	11104
10.34248	9510
10.34820	9900
10.35392	12478
10.35965	13801
10.36537	14283
10.37108	13402
10.37682	13317
10.38253	9712
10.38825	9402
10.39398	9468
10.39970	9614
10.40542	9718
10.41115	9829
10.41687	10019
10.42258	11955
10.42832	15329
10.43403	18389
10.43975	20710
10.44548	17451
10.45120	15272
10.45692	11942
10.46265	12870
10.46837	13686
10.47408	15858
10.47982	16775
10.48553	16127
10.49125	15139
10.49697	12910
10.50270	9151
10.50842	10809
10.51413	11718
10.51987	16121
10.52558	16459
10.53130	17507
10.53703	17949
10.54275	15275
10.54847	18163
10.55420	16454
10.55992	15130
10.56563	16296
10.57137	15323
10.57708	13620
10.58280	12704
10.58853	13481
10.59425	15160
10.59997	15895
10.60570	12621
10.61142	11328
10.61713	11906
10.62287	12645
10.62858	12685
10.63430	10723
10.64003	9570
10.64575	9893
10.65147	7187
10.65720	10649
10.66292	8331
10.66863	7157
10.67435	9647
10.68008	9387
10.68580	11014
10.69152	11957
10.69725	11343
10.70297	10570
10.70868	10695
10.71442	8792
10.72013	11792
10.72585	10922
10.73158	11440
10.73730	12120
10.74302	11739
10.74875	16837
10.75447	25764
10.76018	36387
10.76592	41358
10.77163	35490
10.77735	25931
10.78308	20689
10.78880	15495
10.79452	13637
10.80025	13116
10.80597	12224
10.81168	13149
10.81742	15716
10.82313	15339
10.82885	21701
10.83458	25857
10.84030	26805
10.84602	21282
10.85173	16795
10.85747	14189
10.86318	12822
10.86890	13652
10.87463	14314
10.88035	15909
10.88607	16646
10.89180	21204
10.89752	25373
10.90323	24776
10.90897	19757
10.91468	17412
10.92040	13667
10.92613	13118
10.93185	12766
10.93757	12889
10.94330	15490
10.94902	23792
10.95473	33644
10.96047	40696
10.96618	33108
10.97190	27193
10.97763	19268
10.98335	15814
10.98907	14656
10.99480	17071
11.00052	21359
11.00623	27693
11.01197	24291
11.01768	18994
11.02340	14007
11.02912	12444
11.03485	12399
11.04057	15226
11.04628	14827
11.05202	14900
11.05773	17015
11.06345	15108
11.06918	16137
11.07490	15812
11.08062	17741
11.08635	18329
11.09207	17709
11.09778	21285
11.10352	26382
11.10923	28751
11.11495	26804
11.12068	22240
11.12640	17849
11.13212	14559
11.13785	13598
11.14357	14736
11.14928	18576
11.15502	17374
11.16073	15750
11.16645	14136
11.17218	13268
11.17790	15052
11.18362	14297
11.18935	15227
11.19507	13042
11.20078	14367
11.20650	19324
11.21223	29548
11.21795	40157
11.22367	58458
11.22940	73750
11.23512	77232
11.24083	61312
11.24657	44185
11.25228	35433
11.25800	30758
11.26373	27250
11.26945	22356
11.27517	21122
11.28090	18432
11.28662	17480
11.29233	17769
11.29807	15692
11.30378	18762
11.30950	20195
11.31523	21442
11.32095	23413
11.32667	25045
11.33240	24970
11.33812	23137
11.34383	21242
11.34957	20147
11.35528	21427
11.36100	21250
11.36673	19416
11.37245	20239
11.37817	23800
11.38388	26432
11.38962	33340
11.39533	63611
11.40105	132636
11.40678	230371
11.41250	282890
11.41822	242645
11.42395	172718
11.42967	117016
11.43538	90216
11.44112	76526
11.44683	67680
11.45255	63948
11.45828	62163
11.46400	62010
11.46972	59533
11.47545	62060
11.48117	62357
11.48688	64252
11.49262	78619
11.49833	120122
11.50405	177532
11.50978	197463
11.51550	157301
11.52122	114042
11.52695	88751
11.53267	76145
11.53838	71970
11.54412	71558
11.54983	70978
11.55555	71402
11.56127	67138
11.56700	66984
11.57272	67492
11.57843	62832
11.58417	65295
11.58988	66095
11.59560	67041
11.60133	61671
11.60705	57057
11.61277	56904
11.61850	55147
11.62422	56649
11.62993	57086
11.63567	56402
11.64138	57684
11.64710	53963
11.65283	49596
11.65855	49096
11.66427	44708
11.67000	42120
11.67572	41606
11.68143	38062
11.68717	37268
11.69288	35514
11.69860	34198
11.70433	31550
11.71005	32323
11.71577	28755
11.72150	31484
11.72722	33416
11.73293	41396
11.73865	42664
11.74438	36832
11.75010	29213
11.75582	23855
11.76155	21937
11.76727	20989
11.77298	20174
11.77872	19199
11.78443	19767
11.79015	17866
11.79588	17205
11.80160	16612
11.80732	17242
11.81305	15855
11.81877	15623
11.82448	17188
11.83022	16402
11.83593	14434
11.84165	16386
11.84738	15933
11.85310	20534
11.85882	23153
11.86455	23389
11.87027	19755
11.87598	17059
11.88172	17705
11.88743	15997
11.89315	15844
11.89888	15948
11.90460	15818
11.91032	15169
11.91603	16353
11.92177	15387
11.92748	16533
11.93320	15823
11.93893	16387
11.94465	19077
11.95037	16644
11.95610	17538
11.96182	20550
11.96753	17329
11.97327	19087
11.97898	18389
11.98470	19587
11.99043	19896
11.99615	20141
12.00187	17739
12.00760	18961
12.01332	21050
12.01903	24196
12.02477	23021
12.03048	20778
12.03620	20491
12.04193	20476
12.04765	19636
12.05337	20024
12.05910	19826
12.06482	20793
12.07053	21161
12.07627	19998
12.08198	22576
12.08770	23429
12.09342	23776
12.09915	25785
12.10487	27572
12.11058	32006
12.11632	36583
12.12203	37218
12.12775	35365
12.13348	31781
12.13920	28651
12.14492	27284
12.15065	26852
12.15637	23329
12.16208	23068
12.16782	21998
12.17353	21601
12.17925	22354
12.18498	23712
12.19070	23349
12.19642	21736
12.20215	20650
12.20787	20049
12.21358	20034
12.21932	19455
12.22503	24154
12.23075	26519
12.23648	28005
12.24220	29969
12.24792	30599
12.25365	31807
12.25937	33068
12.26508	33597
12.27080	40480
12.27653	51703
12.28225	68171
12.28797	72225
12.29370	66914
12.29942	48854
12.30513	35402
12.31087	28107
12.31658	32383
12.32230	72756
12.32803	165610
12.33375	245414
12.33947	246637
12.34520	194795
12.35092	155257
12.35663	131795
12.36237	121604
12.36808	139317
12.37380	171096
12.37953	167510
12.38525	138447
12.39097	107850
12.39670	85016
12.40242	72042
12.40813	65746
12.41387	63478
12.41958	57109
12.42530	55006
12.43103	54597
12.43675	57345
12.44247	70174
12.44818	105527
12.45392	125587
12.45963	121720
12.46535	98938
12.47108	91617
12.47680	87563
12.48252	80695
12.48825	74726
12.49397	65680
12.49968	60248
12.50542	72732
12.51113	131824
12.51685	274884
12.52258	445986
12.52830	520079
12.53402	436395
12.53975	284521
12.54547	160988
12.55118	88562
12.55692	61896
12.56263	57291
12.56835	55028
12.57408	55300
12.57980	60924
12.58552	69006
12.59125	118421
12.59697	270859
12.60268	676670
12.60842	1228466
12.61413	1513243
12.61985	1225591
12.62557	678193
12.63130	324858
12.63702	203063
12.64273	159663
12.64847	129099
12.65418	95103
12.65990	71698
12.66563	62443
12.67135	60623
12.67707	57876
12.68280	56749
12.68852	54716
12.69423	50813
12.69997	51195
12.70568	46733
12.71140	47186
12.71713	48154
12.72285	50014
12.72857	51826
12.73430	51465
12.74002	51489
12.74573	51183
12.75147	49517
12.75718	48095
12.76290	45925
12.76863	46649
12.77435	45685
12.78007	47080
12.78580	43745
12.79152	40842
12.79723	38408
12.80295	39518
12.80868	39945
12.81440	39525
12.82012	37917
12.82585	41759
12.83157	41376
12.83728	42591
12.84302	39279
12.84873	37931
12.85445	37003
12.86018	36957
12.86590	37717
12.87162	33016
12.87735	34279
12.88307	36890
12.88878	43793
12.89452	45512
12.90023	44244
12.90595	42197
12.91168	40125
12.91740	40719
12.92312	45447
12.92885	55202
12.93457	69003
12.94028	83430
12.94602	87300
12.95173	87364
12.95745	83930
12.96318	84677
12.96890	84721
12.97462	84345
12.98033	75872
12.98607	66186
12.99178	58687
12.99750	53393
13.00323	53641
13.00895	55826
13.01467	60837
13.02040	61841
13.02612	59103
13.03183	70438
13.03757	101614
13.04328	158770
13.04900	248178
13.05473	350796
13.06045	419052
13.06617	463865
13.07190	489275
13.07762	455926
13.08333	364037
13.08907	244954
13.09478	153935
13.10050	105906
13.10623	84501
13.11195	84408
13.11767	105262
13.12340	133187
13.12912	150804
13.13483	140288
13.14057	116121
13.14628	93065
13.15200	78607
13.15772	73247
13.16345	74300
13.16917	67661
13.17488	69931
13.18062	64678
13.18633	63706
13.19205	62422
13.19778	59023
13.20350	58982
13.20922	58715
13.21495	58887
13.22067	77980
13.22638	144662
13.23212	281060
13.23783	483485
13.24355	660019
13.24928	670267
13.25500	545692
13.26072	391286
13.26645	276197
13.27217	216183
13.27788	184601
13.28362	167961
13.28933	153753
13.29505	147623
13.30078	143728
13.30650	139078
13.31222	139258
13.31795	132977
13.32367	130766
13.32938	129916
13.33510	124628
13.34083	118738
13.34655	117594
13.35227	116484
13.35800	112091
13.36372	109171
13.36943	106112
13.37517	105021
13.38088	104754
13.38660	103942
13.39233	101136
13.39805	102620
13.40377	102639
13.40950	102379
13.41522	97166
13.42093	99608
13.42667	95002
13.43238	90085
13.43810	89688
13.44383	92899
13.44955	91714
13.45527	92036
13.46100	93104
13.46672	93806
13.47243	94658
13.47817	95150
13.48388	100567
13.48960	106333
13.49533	108367
13.50105	106387
13.50677	102617
13.51248	99930
13.51822	99590
13.52393	93890
13.52965	91930
13.53538	91907
13.54110	93651
13.54682	94476
13.55255	93926
13.55827	97099
13.56398	95883
13.56972	98790
13.57543	99915
13.58115	99716
13.58688	106653
13.59260	110666
13.59832	115308
13.60405	120900
13.60977	126605
13.61548	125724
13.62122	124560
13.62693	113988
13.63265	115643
13.63838	109504
13.64410	109822
13.64982	110062
13.65555	109834
13.66127	117176
13.66698	122524
13.67272	152017
13.67843	210313
13.68415	290146
13.68987	361020
13.69560	382959
13.70132	330061
13.70703	247711
13.71277	182177
13.71848	140824
13.72420	129051
13.72993	128871
13.73565	131550
13.74137	139831
13.74710	145881
13.75282	151701
13.75853	148622
13.76427	176588
13.76998	278323
13.77570	534941
13.78143	1018054
13.78715	1534820
13.79287	1807919
13.79860	1611979
13.80432	1127743
13.81003	623058
13.81577	324228
13.82148	210946
13.82720	179800
13.83293	168609
13.83865	163495
13.84437	145774
13.85008	124716
13.85582	109767
13.86153	99600
13.86725	93987
13.87298	93774
13.87870	89763
13.88442	87121
13.89015	82141
13.89587	80781
13.90158	88265
13.90732	94715
13.91303	109945
13.91875	116497
13.92448	121352
13.93020	115569
13.93592	111182
13.94165	105390
13.94737	98169
13.95308	91874
13.95882	90368
13.96453	86842
13.97025	86763
13.97598	88568
13.98170	85019
13.98742	85036
13.99315	80940
13.99887	83055
14.00458	79484
14.01032	76614
14.01603	75615
14.02175	75955
14.02748	74514
14.03320	74782
14.03892	73394
14.04463	70679
14.05037	70860
14.05608	67767
14.06180	66886
14.06753	65710
14.07325	66453
14.07897	67879
14.08470	63442
14.09042	62902
14.09613	66346
14.10187	66982
14.10758	67217
14.11330	68085
14.11903	67562
14.12475	67353
14.13047	67002
14.13620	68413
14.14192	64513
14.14763	67337
14.15337	67865
14.15908	68358
14.16480	64915
14.17053	69544
14.17625	68304
14.18197	70681
14.18770	69792
14.19342	74063
14.19913	86116
14.20487	106872
14.21058	130470
14.21630	154272
14.22202	157811
14.22775	146147
14.23347	130360
14.23918	108607
14.24492	99257
14.25063	92669
14.25635	90492
14.26208	84823
14.26780	82977
14.27352	78629
14.27925	75590
14.28497	71827
14.29068	70032
14.29642	68380
14.30213	70506
14.30785	70818
14.31358	72062
14.31930	71698
14.32502	75938
14.33075	70889
14.33647	70377
14.34218	68317
14.34792	66711
14.35363	71109
14.35935	76035
14.36508	85325
14.37080	104757
14.37652	132766
14.38225	160615
14.38797	182234
14.39368	180371
14.39940	164720
14.40513	145001
14.41085	131004
14.41657	116191
14.42230	109540
14.42802	103487
14.43373	99569
14.43947	99462
14.44518	101362
14.45090	115301
14.45663	138190
14.46235	184273
14.46807	227003
14.47380	256451
14.47952	268374
14.48523	246807
14.49097	205449
14.49668	166750
14.50240	144153
14.50813	153194
14.51385	190251
14.51957	250710
14.52530	306581
14.53102	352996
14.53673	345208
14.54247	307274
14.54818	262922
14.55390	227534
14.55962	210799
14.56535	193508
14.57107	182155
14.57678	170169
14.58252	161988
14.58823	150980
14.59395	144056
14.59968	141757
14.60540	138553
14.61112	131837
14.61685	132313
14.62257	129762
14.62828	127335
14.63402	124372
14.63973	118833
14.64545	119407
14.65118	118254
14.65690	117317
14.66262	112083
14.66835	114161
14.67407	114161
14.67978	114047
14.68552	113806
14.69123	113888
14.69695	118548
14.70268	117967
14.70840	119750
14.71412	119078
14.71985	124078
14.72557	119592
14.73128	116035
14.73700	117040
14.74273	121609
14.74845	114197
14.75417	121557
14.75990	113665
14.76562	113414
14.77133	113743
14.77707	109941
14.78278	110580
14.78850	108879
14.79423	108514
14.79995	107130
14.80567	102922
14.81140	102480
14.81712	103638
14.82283	101376
14.82857	99420
14.83428	101849
14.84000	98614
14.84573	96867
14.85145	97012
14.85717	101333
14.86290	96765
14.86862	96655
14.87433	94391
14.88007	92290
14.88578	92129
14.89150	91466
14.89723	90819
14.90295	92960
14.90867	88623
14.91438	89948
14.92012	87521
14.92583	89907
14.93155	86431
14.93728	85333
14.94300	85074
14.94872	82944
14.95445	83114
14.96017	80480
14.96588	81395
14.97162	81565
14.97733	82576
14.98305	81395
14.98878	79413
14.99450	83917
15.00022	79691
15.00595	80805
15.01167	80374
15.01738	79013
15.02312	77181
15.02883	75692
15.03455	78005
15.04028	76211
15.04600	71982
15.05172	72006
15.05745	76178
15.06317	72688
15.06888	72498
15.07462	71400
15.08033	68391
15.08605	70789
15.09178	70534
15.09750	71678
15.10322	69730
15.10893	70608
15.11467	69474
15.12038	65530
15.12610	69413
15.13183	69096
15.13755	69705
15.14327	71313
15.14900	72599
15.15472	79290
15.16043	79461
15.16617	86378
15.17188	91875
15.17760	99641
15.18333	102774
15.18905	100531
15.19477	94828
15.20050	85758
15.20622	82104
15.21193	76900
15.21767	72428
15.22338	71787
15.22910	69706
15.23483	67302
15.24055	71707
15.24627	66923
15.25200	66100
15.25772	66491
15.26343	65309
15.26915	67615
15.27488	69044
15.28060	72208
15.28632	79672
15.29205	91346
15.29777	100969
15.30348	109591
15.30922	106723
15.31493	98560
15.32065	86235
15.32638	75004
15.33210	69883
15.33782	61330
15.34355	60593
15.34927	58915
15.35498	54805
15.36072	54936
15.36643	55946
15.37215	53459
15.37788	53517
15.38360	53206
15.38932	50474
15.39505	50568
15.40077	51692
15.40648	53572
15.41222	52524
15.41793	48499
15.42365	50389
15.42938	49231
15.43510	50052
15.44082	51052
15.44653	52537
15.45227	53154
15.45798	50452
15.46370	54131
15.46943	53686
15.47515	53116
15.48087	56326
15.48660	55214
15.49232	53365
15.49803	54008
15.50377	54279
15.50948	50776
15.51520	53537
15.52093	52297
15.52665	52836
15.53237	52499
15.53810	52376
15.54382	53541
15.54953	52392
15.55527	50735
15.56098	50819
15.56670	53896
15.57243	47787
15.57815	49147
15.58387	50279
15.58960	49187
15.59532	50418
15.60103	49263
15.60677	50614
15.61248	50199
15.61820	50320
15.62392	52230
15.62965	51356
15.63537	48541
15.64108	51939
15.64682	49474
15.65253	49634
15.65825	47558
15.66398	50065
15.66970	49477
15.67542	48334
15.68115	47562
15.68687	45588
15.69258	46427
15.69832	46324
15.70403	45881
15.70975	45913
15.71548	45368
15.72120	46740
15.72692	46046
15.73265	47894
15.73837	45771
15.74408	47600
15.74982	46135
15.75553	47587
15.76125	49804
15.76698	47286
15.77270	52187
15.77842	50728
15.78415	54579
15.78987	53370
15.79558	52652
15.80130	49638
15.80703	48491
15.81275	44930
15.81847	45541
15.82420	45075
15.82992	43809
15.83563	46286
15.84137	45380
15.84708	42380
15.85280	43367
15.85853	45874
15.86425	46438
15.86997	45862
15.87570	48061
15.88142	46533
15.88713	47357
15.89287	48286
15.89858	50157
15.90430	52712
15.91003	52908
15.91575	51108
15.92147	52475
15.92720	50529
15.93292	46477
15.93863	46518
15.94437	44687
15.95008	44333
15.95580	44337
15.96153	42367
15.96725	42628
15.97297	43396
15.97868	40746
15.98442	43376
15.99013	43679
15.99585	43421
16.00158	46826
16.00730	47024
16.01302	48595
16.01875	49204
16.02447	47282
16.03018	48384
16.03592	45299
16.04163	41095
16.04735	44036
16.05308	43242
16.05880	42522
16.06452	43314
16.07025	41062
16.07597	40300
16.08168	40460
16.08742	41562
16.09313	40468
16.09885	42406
16.10458	41382
16.11030	43494
16.11602	42330
16.12175	43749
16.12747	42295
16.13318	42341
16.13892	46826
16.14463	45098
16.15035	45956
16.15607	46235
16.16180	43752
16.16752	44165
16.17323	44625
16.17897	42952
16.18468	41603
16.19040	40333
16.19613	42621
16.20185	42427
16.20757	40347
16.21330	43126
16.21902	39720
16.22473	40492
16.23047	40968
16.23618	39806
16.24190	40915
16.24763	39757
16.25335	37869
16.25907	38394
16.26480	39704
16.27052	37483
16.27623	38483
16.28197	38242
16.28768	38758
16.29340	37249
16.29913	39255
16.30485	35099
16.31057	37339
16.31630	38800
16.32202	39077
16.32773	40163
16.33345	38029
16.33918	41480
16.34490	41249
16.35062	41491
16.35635	42180
16.36207	48368
16.36778	49697
16.37352	54832
16.37923	59538
16.38495	59480
16.39068	62374
16.39640	61072
16.40212	55627
16.40785	49238
16.41357	46052
16.41928	41800
16.42502	40624
16.43073	42071
16.43645	41892
16.44218	39265
16.44790	41557
16.45362	39135
16.45935	39495
16.46507	38627
16.47078	37751
16.47652	35944
16.48223	35940
16.48795	38684
16.49368	35883
16.49940	37148
16.50512	36092
16.51083	36137
16.51657	37162
16.52228	35386
16.52800	35215
16.53373	37436
16.53945	37335
16.54517	37479
16.55090	37935
16.55662	35007
16.56233	36920
16.56807	37027
16.57378	36803
16.57950	34755
16.58523	34716
16.59095	32322
16.59667	34089
16.60240	31511
16.60812	32444
16.61383	33844
16.61957	32068
16.62528	31429
16.63100	31414
16.63673	32129
16.64245	33300
16.64817	31003
16.65390	34609
16.65962	29127
16.66533	31276
16.67107	29427
16.67678	31393
16.68250	32881
16.68822	32802
16.69395	31158
16.69967	33365
16.70538	34442
16.71112	33973
16.71683	33562
16.72255	32116
16.72828	34204
16.73400	35009
16.73972	34488
16.74545	34101
16.75117	34579
16.75688	33957
16.76262	33918
16.76833	34000
16.77405	36224
16.77978	35130
16.78550	37856
16.79122	36270
16.79695	38687
16.80267	39169
16.80838	37050
16.81412	38338
16.81983	38314
16.82555	38778
16.83128	36587
16.83700	38400
16.84272	41108
16.84845	37878
16.85417	40801
16.85988	41123
16.86560	39908
16.87133	42023
16.87705	40386
16.88277	40486
16.88850	41224
16.89422	40373
16.89993	39400
16.90567	40685
16.91138	41375
16.91710	42314
16.92283	41479
16.92855	40464
16.93427	39499
16.94000	39245
16.94572	36943
16.95143	37844
16.95717	34474
16.96288	32885
16.96860	35663
16.97433	35846
16.98005	33952
16.98577	33767
16.99150	33852
16.99722	33315
17.00293	34514
17.00867	33206
17.01438	33861
17.02010	32244
17.02583	33874
17.03155	32524
17.03727	32061
17.04298	30775
17.04872	30680
17.05443	31957
17.06015	31718
17.06588	30701
17.07160	31189
17.07732	29833
17.08305	30330
17.08877	32028
17.09448	26958
17.10022	29067
17.10593	29566
17.11165	28844
17.11738	30843
17.12310	29530
17.12882	28243
17.13455	28005
17.14027	29280
17.14598	30448
17.15172	28514
17.15743	29834
17.16315	31770
17.16888	31435
17.17460	31577
17.18032	29529
17.18605	29737
17.19177	29236
17.19748	29609
17.20322	26945
17.20893	27336
17.21465	27698
17.22037	27272
17.22610	28132
17.23182	25845
17.23753	25865
17.24327	26591
