D:\MassHunter\GCMS\1\data\Mariana\AlkenylphenolsJan12\T3F1.D Thu Jan 13 15:58:44 2022
Start of data points
3.29292	0
3.29863	174
3.30437	153
3.31008	385
3.31580	0
3.32153	0
3.32725	0
3.33297	0
3.33870	0
3.34442	407
3.35013	0
3.35585	0
3.36158	157
3.36730	393
3.37302	0
3.37875	176
3.38447	0
3.39018	0
3.39592	155
3.40163	0
3.40735	0
3.41308	0
3.41880	0
3.42452	0
3.43025	0
3.43597	0
3.44168	0
3.44742	0
3.45313	0
3.45885	170
3.46458	0
3.47030	167
3.47602	156
3.48175	318
3.48747	0
3.49318	0
3.49892	311
3.50463	0
3.51035	0
3.51607	0
3.52180	0
3.52752	152
3.53323	0
3.53897	175
3.54468	202
3.55040	0
3.55613	204
3.56185	183
3.56757	0
3.57330	171
3.57902	0
3.58473	175
3.59047	321
3.59618	163
3.60190	185
3.60763	166
3.61335	223
3.61907	217
3.62480	356
3.63052	224
3.63623	0
3.64197	190
3.64768	0
3.65340	178
3.65913	157
3.66485	0
3.67057	0
3.67630	167
3.68202	0
3.68773	0
3.69347	156
3.69918	0
3.70490	162
3.71062	164
3.71635	0
3.72207	168
3.72778	151
3.73352	181
3.73923	185
3.74495	0
3.75068	0
3.75640	238
3.76212	194
3.76785	0
3.77357	0
3.77928	0
3.78502	173
3.79073	0
3.79645	0
3.80218	0
3.80790	0
3.81362	0
3.81935	0
3.82507	0
3.83078	0
3.83652	0
3.84223	0
3.84795	0
3.85368	0
3.85940	0
3.86512	154
3.87085	0
3.87657	0
3.88228	0
3.88800	0
3.89373	0
3.89945	0
3.90517	0
3.91090	0
3.91662	169
3.92233	407
3.92807	594
3.93378	427
3.93950	196
3.94523	154
3.95095	0
3.95667	0
3.96240	0
3.96812	0
3.97383	0
3.97957	0
3.98528	0
3.99100	0
3.99673	0
4.00245	0
4.00817	0
4.01390	0
4.01962	0
4.02533	0
4.03107	0
4.03678	0
4.04250	0
4.04823	0
4.05395	0
4.05967	0
4.06538	240
4.07112	0
4.07683	0
4.08255	0
4.08828	0
4.09400	0
4.09972	0
4.10545	0
4.11117	158
4.11688	0
4.12262	0
4.12833	0
4.13405	0
4.13978	0
4.14550	0
4.15122	0
4.15695	0
4.16267	0
4.16838	0
4.17412	0
4.17983	0
4.18555	158
4.19128	0
4.19700	0
4.20272	0
4.20845	0
4.21417	0
4.21988	179
4.22560	332
4.23133	227
4.23705	0
4.24277	0
4.24850	0
4.25422	0
4.25993	0
4.26567	0
4.27138	0
4.27710	0
4.28283	0
4.28855	0
4.29427	0
4.30000	0
4.30572	0
4.31143	0
4.31717	0
4.32288	0
4.32860	0
4.33433	0
4.34005	0
4.34577	0
4.35150	0
4.35722	0
4.36293	0
4.36867	0
4.37438	0
4.38010	0
4.38583	0
4.39155	0
4.39727	0
4.40298	0
4.40872	0
4.41443	0
4.42015	0
4.42588	155
4.43160	0
4.43732	0
4.44305	0
4.44877	0
4.45448	0
4.46022	0
4.46593	0
4.47165	0
4.47738	0
4.48310	0
4.48882	0
4.49455	0
4.50027	0
4.50598	0
4.51172	0
4.51743	0
4.52315	163
4.52888	0
4.53460	0
4.54032	0
4.54605	0
4.55177	0
4.55748	0
4.56322	0
4.56893	0
4.57465	0
4.58038	0
4.58610	0
4.59182	0
4.59753	0
4.60327	0
4.60898	0
4.61470	0
4.62043	0
4.62615	0
4.63187	0
4.63760	0
4.64332	0
4.64903	0
4.65477	0
4.66048	0
4.66620	0
4.67193	0
4.67765	0
4.68337	0
4.68910	0
4.69482	0
4.70053	0
4.70627	0
4.71198	1042
4.71770	1532
4.72343	1269
4.72915	594
4.73487	999
4.74060	520
4.74632	184
4.75203	0
4.75777	0
4.76348	0
4.76920	172
4.77492	156
4.78065	0
4.78637	0
4.79208	0
4.79782	0
4.80353	0
4.80925	0
4.81498	0
4.82070	0
4.82642	0
4.83215	0
4.83787	0
4.84358	0
4.84932	0
4.85503	0
4.86075	171
4.86648	0
4.87220	0
4.87792	0
4.88365	0
4.88937	155
4.89508	0
4.90082	0
4.90653	0
4.91225	0
4.91798	0
4.92370	0
4.92942	0
4.93515	0
4.94087	0
4.94658	0
4.95230	0
4.95803	0
4.96375	0
4.96947	0
4.97520	0
4.98092	0
4.98663	0
4.99237	0
4.99808	0
5.00380	0
5.00953	0
5.01525	0
5.02097	0
5.02670	0
5.03242	0
5.03813	0
5.04387	0
5.04958	0
5.05530	0
5.06103	199
5.06675	0
5.07247	0
5.07820	0
5.08392	0
5.08963	0
5.09537	0
5.10108	0
5.10680	0
5.11252	0
5.11825	0
5.12397	180
5.12968	0
5.13542	0
5.14113	0
5.14685	0
5.15258	0
5.15830	0
5.16402	0
5.16975	0
5.17547	0
5.18118	0
5.18692	0
5.19263	0
5.19835	230
5.20408	168
5.20980	0
5.21552	0
5.22125	0
5.22697	0
5.23268	0
5.23842	0
5.24413	0
5.24985	0
5.25558	0
5.26130	0
5.26702	0
5.27275	0
5.27847	0
5.28418	0
5.28990	218
5.29563	0
5.30135	0
5.30707	0
5.31280	0
5.31852	0
5.32423	0
5.32997	0
5.33568	0
5.34140	0
5.34713	0
5.35285	0
5.35857	0
5.36430	0
5.37002	0
5.37573	0
5.38147	0
5.38718	0
5.39290	0
5.39863	0
5.40435	0
5.41007	0
5.41580	0
5.42152	0
5.42723	0
5.43297	200
5.43868	0
5.44440	0
5.45013	0
5.45585	0
5.46157	0
5.46730	0
5.47302	260
5.47873	0
5.48445	161
5.49018	0
5.49590	0
5.50162	0
5.50735	0
5.51307	0
5.51878	0
5.52452	0
5.53023	0
5.53595	0
5.54168	0
5.54740	0
5.55312	0
5.55885	0
5.56457	0
5.57028	0
5.57602	0
5.58173	0
5.58745	0
5.59318	0
5.59890	0
5.60462	0
5.61035	0
5.61607	0
5.62178	0
5.62752	336
5.63323	379
5.63895	491
5.64468	517
5.65040	0
5.65612	0
5.66183	0
5.66757	0
5.67328	0
5.67900	0
5.68473	0
5.69045	0
5.69617	0
5.70190	0
5.70762	0
5.71333	0
5.71907	0
5.72478	0
5.73050	0
5.73623	0
5.74195	0
5.74767	0
5.75340	368
5.75912	978
5.76483	1759
5.77057	2177
5.77628	1547
5.78200	2152
5.78773	1679
5.79345	1796
5.79917	2279
5.80490	1680
5.81062	1863
5.81633	1524
5.82205	1116
5.82778	1648
5.83350	1077
5.83922	1638
5.84495	817
5.85067	826
5.85638	894
5.86212	672
5.86783	813
5.87355	282
5.87928	642
5.88500	409
5.89072	697
5.89645	313
5.90217	536
5.90788	382
5.91362	245
5.91933	288
5.92505	207
5.93078	422
5.93650	385
5.94222	229
5.94795	556
5.95367	405
5.95938	417
5.96512	388
5.97083	309
5.97655	0
5.98228	240
5.98800	283
5.99372	209
5.99943	164
6.00517	202
6.01088	170
6.01660	159
6.02233	192
6.02805	0
6.03377	173
6.03950	0
6.04522	169
6.05093	169
6.05667	0
6.06238	190
6.06810	0
6.07383	181
6.07955	217
6.08527	0
6.09100	200
6.09672	347
6.10243	350
6.10817	164
6.11388	0
6.11960	0
6.12533	174
6.13105	188
6.13677	0
6.14250	160
6.14822	0
6.15393	166
6.15967	168
6.16538	0
6.17110	167
6.17682	198
6.18255	157
6.18827	0
6.19398	161
6.19972	159
6.20543	0
6.21115	173
6.21688	0
6.22260	0
6.22832	0
6.23405	160
6.23977	0
6.24548	0
6.25122	0
6.25693	0
6.26265	159
6.26838	186
6.27410	164
6.27982	168
6.28555	0
6.29127	0
6.29698	159
6.30272	0
6.30843	0
6.31415	0
6.31988	0
6.32560	156
6.33132	0
6.33705	0
6.34277	0
6.34848	166
6.35422	181
6.35993	483
6.36565	174
6.37137	154
6.37710	0
6.38282	284
6.38853	286
6.39427	675
6.39998	355
6.40570	0
6.41143	218
6.41715	0
6.42287	173
6.42860	0
6.43432	0
6.44003	154
6.44577	0
6.45148	0
6.45720	0
6.46293	0
6.46865	0
6.47437	180
6.48010	461
6.48582	1367
6.49153	1533
6.49727	1294
6.50298	321
6.50870	178
6.51443	0
6.52015	0
6.52587	0
6.53158	169
6.53732	0
6.54303	0
6.54875	182
6.55448	0
6.56020	0
6.56592	0
6.57165	0
6.57737	0
6.58308	0
6.58882	0
6.59453	0
6.60025	0
6.60598	0
6.61170	0
6.61742	0
6.62315	0
6.62887	181
6.63458	192
6.64032	557
6.64603	983
6.65175	867
6.65748	1048
6.66320	955
6.66892	1107
6.67465	1005
6.68037	879
6.68608	1127
6.69182	1095
6.69753	931
6.70325	598
6.70897	495
6.71470	627
6.72042	463
6.72613	442
6.73187	534
6.73758	481
6.74330	510
6.74903	479
6.75475	457
6.76047	211
6.76620	246
6.77192	458
6.77763	165
6.78337	415
6.78908	192
6.79480	166
6.80053	181
6.80625	0
6.81197	0
6.81770	265
6.82342	184
6.82913	166
6.83487	0
6.84058	375
6.84630	190
6.85203	0
6.85775	153
6.86347	164
6.86920	168
6.87492	0
6.88063	0
6.88635	0
6.89208	0
6.89780	0
6.90352	0
6.90925	0
6.91497	0
6.92068	0
6.92642	0
6.93213	0
6.93785	0
6.94358	217
6.94930	0
6.95502	154
6.96075	530
6.96647	846
6.97218	660
6.97792	672
6.98363	562
6.98935	754
6.99508	463
7.00080	327
7.00652	398
7.01225	338
7.01797	200
7.02368	188
7.02942	165
7.03513	202
7.04085	479
7.04658	0
7.05230	0
7.05802	169
7.06373	174
7.06947	188
7.07518	0
7.08090	0
7.08663	156
7.09235	0
7.09807	0
7.10380	169
7.10952	0
7.11523	218
7.12097	826
7.12668	776
7.13240	189
7.13813	569
7.14385	160
7.14957	0
7.15530	249
7.16102	0
7.16673	0
7.17247	215
7.17818	158
7.18390	0
7.18963	162
7.19535	173
7.20107	175
7.20680	173
7.21252	0
7.21823	195
7.22397	0
7.22968	0
7.23540	0
7.24112	0
7.24685	0
7.25257	0
7.25828	189
7.26402	0
7.26973	151
7.27545	0
7.28118	209
7.28690	369
7.29262	764
7.29835	191
7.30407	0
7.30978	188
7.31552	153
7.32123	361
7.32695	0
7.33268	502
7.33840	0
7.34412	190
7.34985	0
7.35557	217
7.36128	0
7.36702	0
7.37273	0
7.37845	0
7.38418	478
7.38990	176
7.39562	153
7.40135	340
7.40707	1146
7.41278	1770
7.41850	1976
7.42423	1121
7.42995	509
7.43567	377
7.44140	324
7.44712	189
7.45283	0
7.45857	181
7.46428	0
7.47000	174
7.47573	0
7.48145	0
7.48717	0
7.49290	0
7.49862	0
7.50433	0
7.51007	0
7.51578	0
7.52150	153
7.52723	0
7.53295	0
7.53867	0
7.54440	0
7.55012	0
7.55583	0
7.56157	160
7.56728	192
7.57300	0
7.57873	0
7.58445	0
7.59017	209
7.59588	336
7.60162	833
7.60733	1872
7.61305	1759
7.61878	675
7.62450	782
7.63022	565
7.63595	629
7.64167	794
7.64738	625
7.65312	213
7.65883	705
7.66455	610
7.67028	659
7.67600	261
7.68172	0
7.68745	310
7.69317	0
7.69888	381
7.70462	560
7.71033	0
7.71605	0
7.72178	198
7.72750	165
7.73322	238
7.73895	156
7.74467	0
7.75038	154
7.75612	152
7.76183	0
7.76755	170
7.77327	156
7.77900	173
7.78472	230
7.79043	0
7.79617	0
7.80188	181
7.80760	164
7.81333	207
7.81905	207
7.82477	356
7.83050	231
7.83622	383
7.84193	341
7.84767	305
7.85338	522
7.85910	490
7.86483	338
7.87055	883
7.87627	480
7.88200	367
7.88772	325
7.89343	860
7.89917	1076
7.90488	540
7.91060	0
7.91633	166
7.92205	180
7.92777	153
7.93350	0
7.93922	0
7.94493	473
7.95065	1059
7.95638	2527
7.96210	3138
7.96782	2107
7.97355	2728
7.97927	2280
7.98498	1363
7.99072	966
7.99643	613
8.00215	211
8.00788	730
8.01360	1155
8.01932	899
8.02505	661
8.03077	0
8.03648	534
8.04222	335
8.04793	176
8.05365	0
8.05938	319
8.06510	530
8.07082	315
8.07655	521
8.08227	635
8.08798	0
8.09372	175
8.09943	153
8.10515	231
8.11088	432
8.11660	320
8.12232	152
8.12803	360
8.13377	509
8.13948	670
8.14520	525
8.15093	1678
8.15665	2871
8.16237	4787
8.16810	4025
8.17382	1296
8.17953	578
8.18527	500
8.19098	0
8.19670	164
8.20243	0
8.20815	508
8.21387	450
8.21960	0
8.22532	384
8.23103	528
8.23677	825
8.24248	1234
8.24820	2105
8.25393	1864
8.25965	1585
8.26537	576
8.27110	353
8.27682	1087
8.28253	1456
8.28827	1604
8.29398	562
8.29970	750
8.30542	317
8.31115	0
8.31687	429
8.32258	337
8.32832	639
8.33403	341
8.33975	690
8.34548	180
8.35120	384
8.35692	172
8.36265	922
8.36837	206
8.37408	356
8.37982	365
8.38553	388
8.39125	702
8.39698	827
8.40270	388
8.40842	1448
8.41415	1055
8.41987	1744
8.42558	1023
8.43132	586
8.43703	781
8.44275	754
8.44848	754
8.45420	177
8.45992	528
8.46565	545
8.47137	922
8.47708	212
8.48280	706
8.48853	816
8.49425	1207
8.49997	1376
8.50570	1614
8.51142	1332
8.51713	3214
8.52287	4761
8.52858	3116
8.53430	1880
8.54003	1006
8.54575	911
8.55147	1021
8.55720	2413
8.56292	5821
8.56863	8311
8.57437	7287
8.58008	6130
8.58580	4500
8.59153	4171
8.59725	4815
8.60297	6917
8.60870	9545
8.61442	11490
8.62013	13421
8.62587	13152
8.63158	12741
8.63730	9979
8.64303	9072
8.64875	7332
8.65447	4123
8.66018	3179
8.66592	4083
8.67163	4011
8.67735	3184
8.68308	1251
8.68880	2026
8.69452	1941
8.70025	2332
8.70597	1951
8.71168	2296
8.71742	1614
8.72313	1924
8.72885	1113
8.73458	1439
8.74030	2035
8.74602	6860
8.75175	8804
8.75747	13201
8.76318	17398
8.76892	21124
8.77463	22257
8.78035	14572
8.78608	8584
8.79180	6992
8.79752	9503
8.80325	16031
8.80897	20845
8.81468	17620
8.82042	10521
8.82613	4286
8.83185	3456
8.83757	3005
8.84330	3831
8.84902	4919
8.85473	5480
8.86047	3468
8.86618	1708
8.87190	1235
8.87763	1374
8.88335	1673
8.88907	824
8.89480	546
8.90052	2421
8.90623	3820
8.91197	4245
8.91768	4668
8.92340	2619
8.92913	3659
8.93485	4334
8.94057	6173
8.94630	6004
8.95202	4646
8.95773	2598
8.96347	2422
8.96918	1984
8.97490	2280
8.98063	2402
8.98635	2915
8.99207	3140
8.99780	3743
9.00352	3119
9.00923	2672
9.01495	1831
9.02068	2525
9.02640	2800
9.03212	3408
9.03785	2900
9.04357	2621
9.04928	2667
9.05502	4086
9.06073	5985
9.06645	4756
9.07218	2331
9.07790	2313
9.08362	3938
9.08935	4808
9.09507	5096
9.10078	6383
9.10652	7308
9.11223	9855
9.11795	12126
9.12368	13980
9.12940	14270
9.13512	10595
9.14085	7061
9.14657	6808
9.15228	6885
9.15802	5918
9.16373	4804
9.16945	3296
9.17518	3317
9.18090	2296
9.18662	2793
9.19233	2439
9.19807	2148
9.20378	2021
9.20950	1559
9.21523	2170
9.22095	3318
9.22667	5107
9.23240	5862
9.23812	7389
9.24383	6159
9.24957	6486
9.25528	5883
9.26100	4230
9.26673	2688
9.27245	2098
9.27817	1220
9.28390	1348
9.28962	1773
9.29533	1312
9.30107	2440
9.30678	4384
9.31250	6834
9.31823	7436
9.32395	7063
9.32967	5142
9.33540	4955
9.34112	3300
9.34683	4281
9.35257	4472
9.35828	7520
9.36400	14651
9.36972	18533
9.37545	16989
9.38117	12353
9.38688	7532
9.39262	5355
9.39833	3587
9.40405	3364
9.40978	7925
9.41550	28828
9.42122	138448
9.42695	484114
9.43267	1117293
9.43838	1921030
9.44412	2265003
9.44983	1813327
9.45555	948752
9.46128	464928
9.46700	268095
9.47272	181106
9.47845	147237
9.48417	112226
9.48988	92457
9.49562	76324
9.50133	61380
9.50705	53169
9.51278	50163
9.51850	47062
9.52422	41125
9.52995	34029
9.53567	32707
9.54138	29641
9.54710	29404
9.55283	30334
9.55855	29053
9.56427	29192
9.57000	27857
9.57572	26522
9.58143	22400
9.58717	19601
9.59288	19447
9.59860	19964
9.60433	20378
9.61005	22666
9.61577	24247
9.62150	23139
9.62722	18052
9.63293	15700
9.63867	15582
9.64438	15540
9.65010	16958
9.65583	19251
9.66155	17551
9.66727	17131
9.67300	17057
9.67872	15000
9.68443	13958
9.69017	16322
9.69588	23371
9.70160	33402
9.70733	36214
9.71305	33518
9.71877	23935
9.72448	17820
9.73022	14464
9.73593	13245
9.74165	13193
9.74738	14966
9.75310	15088
9.75882	15413
9.76455	15736
9.77027	17652
9.77598	15482
9.78172	14375
9.78743	13096
9.79315	13968
9.79888	14351
9.80460	17197
9.81032	18348
9.81605	19975
9.82177	19663
9.82748	19664
9.83322	23108
9.83893	29716
9.84465	48269
9.85038	63140
9.85610	74241
9.86182	71389
9.86755	62601
9.87327	47231
9.87898	32548
9.88472	22384
9.89043	15998
9.89615	13961
9.90187	14317
9.90760	15535
9.91332	18210
9.91903	17343
9.92477	16795
9.93048	19610
9.93620	21706
9.94193	19990
9.94765	19539
9.95337	26526
9.95910	36260
9.96482	39926
9.97053	33133
9.97627	27053
9.98198	22681
9.98770	21063
9.99343	17401
9.99915	12631
10.00487	11186
10.01060	11161
10.01632	12310
10.02203	14696
10.02777	15960
10.03348	20754
10.03920	21769
10.04493	24360
10.05065	26351
10.05637	27793
10.06210	24244
10.06782	18581
10.07353	15389
10.07925	14250
10.08498	13381
10.09070	12448
10.09642	10862
10.10215	12403
10.10787	11877
10.11358	15132
10.11932	19807
10.12503	24710
10.13075	25778
10.13648	22839
10.14220	20886
10.14792	19556
10.15365	17399
10.15937	14485
10.16508	11692
10.17082	12323
10.17653	13110
10.18225	9833
10.18798	11943
10.19370	10947
10.19942	14495
10.20515	15323
10.21087	14307
10.21658	14072
10.22232	14366
10.22803	16251
10.23375	18772
10.23948	24740
10.24520	25766
10.25092	22367
10.25663	18695
10.26237	18731
10.26808	18509
10.27380	20948
10.27953	21106
10.28525	19470
10.29097	14325
10.29670	13261
10.30242	13366
10.30813	14635
10.31387	15309
10.31958	15545
10.32530	11899
10.33103	10655
10.33675	10014
10.34247	8724
10.34820	9882
10.35392	10076
10.35963	13035
10.36537	13188
10.37108	11597
10.37680	12716
10.38253	11691
10.38825	10032
10.39397	9519
10.39970	10579
10.40542	11422
10.41113	11249
10.41687	10011
10.42258	13703
10.42830	16552
10.43402	19051
10.43975	21485
10.44547	18624
10.45118	15357
10.45692	13725
10.46263	12848
10.46835	14398
10.47408	16694
10.47980	18814
10.48552	16219
10.49125	14558
10.49697	11878
10.50268	11053
10.50842	11975
10.51413	12911
10.51985	14197
10.52558	16191
10.53130	17990
10.53702	16875
10.54275	16101
10.54847	14699
10.55418	15622
10.55992	15788
10.56563	15623
10.57135	15323
10.57708	13412
10.58280	13713
10.58852	13502
10.59425	15991
10.59997	14776
10.60568	12704
10.61140	13030
10.61713	11930
10.62285	13302
10.62857	13417
10.63430	12272
10.64002	9695
10.64573	10166
10.65147	8198
10.65718	9886
10.66290	9246
10.66863	8923
10.67435	9566
10.68007	11035
10.68580	12006
10.69152	14242
10.69723	15115
10.70297	12737
10.70868	11705
10.71440	10884
10.72013	11722
10.72585	11579
10.73157	11139
10.73730	13141
10.74302	13079
10.74873	15982
10.75447	25320
10.76018	36484
10.76590	41940
10.77163	38044
10.77735	33386
10.78307	26363
10.78878	18414
10.79452	12955
10.80023	13092
10.80595	11410
10.81168	12772
10.81740	14419
10.82312	18378
10.82885	22596
10.83457	29003
10.84028	30863
10.84602	25370
10.85173	20496
10.85745	17510
10.86318	15666
10.86890	14576
10.87462	14294
10.88035	13684
10.88607	17172
10.89178	19969
10.89752	23755
10.90323	25279
10.90895	20784
10.91468	16532
10.92040	15036
10.92612	13685
10.93185	15901
10.93757	14807
10.94328	17196
10.94902	26857
10.95473	33811
10.96045	40090
10.96617	36349
10.97190	28488
10.97762	20048
10.98333	16191
10.98907	14467
10.99478	15526
11.00050	21866
11.00623	26431
11.01195	24969
11.01767	19855
11.02340	14816
11.02912	12482
11.03483	13390
11.04057	14267
11.04628	15604
11.05200	16232
11.05773	15718
11.06345	17426
11.06917	16797
11.07490	17539
11.08062	19035
11.08633	19878
11.09207	20450
11.09778	22810
11.10350	25333
11.10923	27702
11.11495	28615
11.12067	23839
11.12638	18731
11.13212	15869
11.13783	14421
11.14355	16090
11.14928	16304
11.15500	17672
11.16072	16136
11.16645	14596
11.17217	16675
11.17788	16619
11.18362	14162
11.18933	14495
11.19505	13757
11.20078	15881
11.20650	20167
11.21222	28552
11.21795	38772
11.22367	44226
11.22938	55657
11.23512	59188
11.24083	51476
11.24655	42901
11.25228	37139
11.25800	32092
11.26372	29449
11.26945	23719
11.27517	22743
11.28088	18681
11.28662	16710
11.29233	17967
11.29805	18911
11.30377	17447
11.30950	18766
11.31522	21325
11.32093	23960
11.32667	25048
11.33238	25091
11.33810	21702
11.34383	21310
11.34955	19170
11.35527	21889
11.36100	19604
11.36672	20799
11.37243	21830
11.37817	22237
11.38388	25010
11.38960	34961
11.39533	59143
11.40105	110425
11.40677	181114
11.41250	217399
11.41822	188753
11.42393	141098
11.42967	102154
11.43538	78231
11.44110	67298
11.44683	61602
11.45255	57837
11.45827	58421
11.46400	57609
11.46972	57499
11.47543	56663
11.48115	57520
11.48688	61276
11.49260	67378
11.49832	95127
11.50405	135933
11.50977	155163
11.51548	138891
11.52122	111234
11.52693	90165
11.53265	75713
11.53838	76394
11.54410	71429
11.54982	72480
11.55555	70725
11.56127	70926
11.56698	68073
11.57272	69449
11.57843	66915
11.58415	65818
11.58988	63276
11.59560	65329
11.60132	61738
11.60705	60088
11.61277	59362
11.61848	57339
11.62422	56926
11.62993	58388
11.63565	60817
11.64138	59734
11.64710	56419
11.65282	52925
11.65855	48542
11.66427	44890
11.66998	44073
11.67570	40410
11.68143	38899
11.68715	37211
11.69287	37342
11.69860	36781
11.70432	34991
11.71003	33647
11.71577	33376
11.72148	34444
11.72720	36262
11.73293	41426
11.73865	44867
11.74437	40255
11.75010	32524
11.75582	26847
11.76153	24034
11.76727	23851
11.77298	21550
11.77870	20632
11.78443	22969
11.79015	21422
11.79587	19923
11.80160	18943
11.80732	20228
11.81303	16644
11.81877	17666
11.82448	18319
11.83020	18521
11.83592	18096
11.84165	18590
11.84737	19344
11.85308	20782
11.85882	22869
11.86453	22062
11.87025	19624
11.87598	20294
11.88170	16515
11.88742	17156
11.89315	18136
11.89887	17621
11.90458	18407
11.91032	18869
11.91603	17591
11.92175	17727
11.92748	17667
11.93320	17839
11.93892	18361
11.94465	17671
11.95037	16703
11.95608	19763
11.96182	18152
11.96753	19720
11.97325	19611
11.97898	20892
11.98470	20758
11.99042	19544
11.99615	19311
12.00187	18620
12.00758	21616
12.01330	22845
12.01903	24181
12.02475	24960
12.03047	25333
12.03620	25916
12.04192	23525
12.04763	23298
12.05337	25083
12.05908	24511
12.06480	24316
12.07053	25270
12.07625	26265
12.08197	26788
12.08770	26757
12.09342	28148
12.09913	31292
12.10487	34935
12.11058	35876
12.11630	40235
12.12203	43587
12.12775	40947
12.13347	37307
12.13920	29901
12.14492	27245
12.15063	26662
12.15637	25579
12.16208	22713
12.16780	24677
12.17353	22120
12.17925	23771
12.18497	24770
12.19068	24816
12.19642	23890
12.20213	23024
12.20785	20654
12.21358	22372
12.21930	23273
12.22502	26651
12.23075	32972
12.23647	36894
12.24218	39426
12.24792	40172
12.25363	42277
12.25935	45150
12.26508	45644
12.27080	48299
12.27652	62009
12.28225	79650
12.28797	85407
12.29368	74560
12.29942	53700
12.30513	38513
12.31085	29872
12.31658	27486
12.32230	38397
12.32802	61884
12.33375	78424
12.33947	78263
12.34518	73267
12.35092	63807
12.35663	61648
12.36235	61164
12.36807	61787
12.37380	67219
12.37952	68797
12.38523	58695
12.39097	55136
12.39668	50405
12.40240	50357
12.40813	46214
12.41385	43442
12.41957	41893
12.42530	39528
12.43102	41158
12.43673	41886
12.44247	45450
12.44818	60473
12.45390	69362
12.45963	68657
12.46535	63485
12.47107	56996
12.47680	55642
12.48252	56217
12.48823	51530
12.49397	50411
12.49968	47429
12.50540	59393
12.51113	98919
12.51685	197886
12.52257	329481
12.52830	406862
12.53402	362825
12.53973	239341
12.54545	130143
12.55118	73746
12.55690	57451
12.56262	48720
12.56835	47757
12.57407	51343
12.57978	53186
12.58552	56008
12.59123	77557
12.59695	146824
12.60268	298005
12.60840	491277
12.61412	574784
12.61985	451465
12.62557	260953
12.63128	144103
12.63702	105374
12.64273	91206
12.64845	79570
12.65418	67774
12.65990	57928
12.66562	55798
12.67135	51507
12.67707	54724
12.68278	53457
12.68852	48373
12.69423	44588
12.69995	42460
12.70568	44216
12.71140	43370
12.71712	44219
12.72283	45675
12.72857	48644
12.73428	50068
12.74000	49969
12.74573	47579
12.75145	46479
12.75717	43964
12.76290	41071
12.76862	40153
12.77433	39854
12.78007	40287
12.78578	41640
12.79150	35065
12.79723	38045
12.80295	38751
12.80867	38234
12.81440	37796
12.82012	41155
12.82583	40503
12.83157	41421
12.83728	38327
12.84300	38884
12.84873	36654
12.85445	34907
12.86017	34902
12.86590	33455
12.87162	33912
12.87733	32846
12.88307	34211
12.88878	34797
12.89450	34775
12.90022	37901
12.90595	36035
12.91167	38051
12.91738	41063
12.92312	47788
12.92883	56202
12.93455	74109
12.94028	85509
12.94600	93233
12.95172	87626
12.95745	76698
12.96317	73375
12.96888	72588
12.97462	69204
12.98033	61970
12.98605	55460
12.99178	48458
12.99750	51795
13.00322	54685
13.00895	54748
13.01467	54780
13.02038	53894
13.02612	55390
13.03183	68760
13.03755	104791
13.04328	182610
13.04900	287366
13.05472	390450
13.06045	446285
13.06617	443340
13.07188	402152
13.07760	361035
13.08333	282835
13.08905	195711
13.09477	129172
13.10050	92218
13.10622	76629
13.11193	80099
13.11767	97221
13.12338	111839
13.12910	113078
13.13483	106004
13.14055	90948
13.14627	74366
13.15200	64629
13.15772	60391
13.16343	61551
13.16917	61821
13.17488	59672
13.18060	55749
13.18633	57671
13.19205	57846
13.19777	57741
13.20350	54432
13.20922	52310
13.21493	55199
13.22067	74138
13.22638	133169
13.23210	243532
13.23783	371277
13.24355	443897
13.24927	402578
13.25498	326003
13.26072	241301
13.26643	184932
13.27215	153835
13.27788	140422
13.28360	129600
13.28932	123075
13.29505	124082
13.30077	122139
13.30648	124156
13.31222	123764
13.31793	120657
13.32365	121674
13.32938	115344
13.33510	111013
13.34082	106126
13.34655	102073
13.35227	104574
13.35798	100787
13.36372	97847
13.36943	94247
13.37515	92843
13.38088	91381
13.38660	93411
13.39232	94103
13.39805	91829
13.40377	92528
13.40948	88745
13.41522	87053
13.42093	84689
13.42665	84538
13.43237	87932
13.43810	84747
13.44382	86394
13.44953	88100
13.45527	86028
13.46098	88201
13.46670	88527
13.47243	88853
13.47815	91343
13.48387	95866
13.48960	102402
13.49532	103776
13.50103	97826
13.50677	96800
13.51248	92627
13.51820	91483
13.52393	89414
13.52965	87778
13.53537	87864
13.54110	88805
13.54682	88740
13.55253	89644
13.55827	89909
13.56398	92353
13.56970	91227
13.57543	96533
13.58115	98557
13.58687	102840
13.59260	108186
13.59832	117853
13.60403	120130
13.60975	123130
13.61548	124278
13.62120	122285
13.62692	122161
13.63265	121686
13.63837	117488
13.64408	116144
13.64982	116057
13.65553	110701
13.66125	113275
13.66698	118250
13.67270	128499
13.67842	149250
13.68415	191254
13.68987	216765
13.69558	227844
13.70132	198468
13.70703	167286
13.71275	136392
13.71848	124479
13.72420	121216
13.72992	121703
13.73565	123418
13.74137	128953
13.74708	128453
13.75282	130063
13.75853	130760
13.76425	144758
13.76998	194334
13.77570	318310
13.78142	496377
13.78713	666404
13.79287	714435
13.79858	588850
13.80430	405982
13.81003	246376
13.81575	162766
13.82147	125227
13.82720	115125
13.83292	109372
13.83863	104907
13.84437	98170
13.85008	93517
13.85580	86292
13.86153	81008
13.86725	79938
13.87297	76810
13.87870	74936
13.88442	72723
13.89013	72758
13.89587	74107
13.90158	79797
13.90730	89062
13.91303	98968
13.91875	102982
13.92447	106351
13.93020	102702
13.93592	92802
13.94163	84495
13.94737	84516
13.95308	81691
13.95880	78222
13.96452	77436
13.97025	74971
13.97597	74208
13.98168	72379
13.98742	73112
13.99313	69068
13.99885	68337
14.00458	68683
14.01030	67915
14.01602	65979
14.02175	63286
14.02747	63541
14.03318	62862
14.03892	63597
14.04463	61586
14.05035	57145
14.05608	56574
14.06180	58226
14.06752	57340
14.07325	57182
14.07897	55623
14.08468	59377
14.09042	58646
14.09613	57061
14.10185	58834
14.10758	61404
14.11330	59061
14.11902	60068
14.12475	57954
14.13047	59521
14.13618	58769
14.14190	56893
14.14763	61526
14.15335	59689
14.15907	54831
14.16480	54888
14.17052	57317
14.17623	58285
14.18197	59229
14.18768	58374
14.19340	67679
14.19913	72671
14.20485	88126
14.21057	102882
14.21630	119881
14.22202	121722
14.22773	118575
14.23347	105786
14.23918	90851
14.24490	80442
14.25063	76108
14.25635	71356
14.26207	69914
14.26780	68685
14.27352	61102
14.27923	61930
14.28497	60608
14.29068	55427
14.29640	56595
14.30213	58121
14.30785	58933
14.31357	62195
14.31928	59013
14.32502	62538
14.33073	60882
14.33645	60016
14.34218	58508
14.34790	54654
14.35362	59342
14.35935	61171
14.36507	67858
14.37078	84508
14.37652	107578
14.38223	126327
14.38795	142094
14.39368	144067
14.39940	130123
14.40512	112994
14.41085	103411
14.41657	94188
14.42228	87290
14.42802	85221
14.43373	81510
14.43945	78167
14.44518	77511
14.45090	86748
14.45662	103866
14.46235	130781
14.46807	167546
14.47378	192550
14.47952	199585
14.48523	192327
14.49095	168023
14.49667	143185
14.50240	127802
14.50812	138675
14.51383	176948
14.51957	225766
14.52528	276707
14.53100	292036
14.53673	282062
14.54245	239873
14.54817	197819
14.55390	168147
14.55962	153239
14.56533	144841
14.57107	135686
14.57678	132676
14.58250	126939
14.58823	120400
14.59395	118642
14.59967	113169
14.60540	108343
14.61112	102593
14.61683	100838
14.62257	95419
14.62828	96785
14.63400	95243
14.63973	97296
14.64545	96168
14.65117	98389
14.65690	98190
14.66262	99416
14.66833	98835
14.67405	100927
14.67978	97559
14.68550	100792
14.69122	102064
14.69695	101686
14.70267	106641
14.70838	108336
14.71412	112738
14.71983	113554
14.72555	113263
14.73128	112530
14.73700	116058
14.74272	110955
14.74845	115810
14.75417	110669
14.75988	110008
14.76562	111753
14.77133	110277
14.77705	112159
14.78278	108416
14.78850	107948
14.79422	109958
14.79995	104717
14.80567	100516
14.81138	99657
14.81712	100230
14.82283	91688
14.82855	96138
14.83427	91470
14.84000	91246
14.84572	88893
14.85143	89735
14.85717	89214
14.86288	87637
14.86860	86274
14.87433	83483
14.88005	83495
14.88577	83235
14.89150	82176
14.89722	81510
14.90293	80805
14.90867	82305
14.91438	79174
14.92010	81947
14.92583	78011
14.93155	79883
14.93727	76168
14.94300	75230
14.94872	75506
14.95443	74298
14.96017	72005
14.96588	72171
14.97160	73853
14.97733	73564
14.98305	75191
14.98877	74513
14.99450	70764
15.00022	74043
15.00593	71267
15.01165	71048
15.01738	70105
15.02310	69118
15.02882	69717
15.03455	68879
15.04027	70193
15.04598	67253
15.05172	68748
15.05743	65517
15.06315	65768
15.06888	64327
15.07460	64805
15.08032	66742
15.08605	64564
15.09177	61758
15.09748	63808
15.10322	61001
15.10893	61762
15.11465	58732
15.12038	59483
15.12610	63690
15.13182	61959
15.13755	61905
15.14327	62500
15.14898	61985
15.15472	65547
15.16043	68658
15.16615	67656
15.17188	70960
15.17760	74905
15.18332	76486
15.18905	76174
15.19477	72268
15.20048	68888
15.20620	65501
15.21193	63059
15.21765	62238
15.22337	62244
15.22910	60115
15.23482	60337
15.24053	61040
15.24627	62120
15.25198	60504
15.25770	59573
15.26343	58156
15.26915	58429
15.27487	58126
15.28060	60070
15.28632	64520
15.29203	68518
15.29777	70558
15.30348	72897
15.30920	72495
15.31493	66556
15.32065	64587
15.32637	57775
15.33210	54272
15.33782	52305
15.34353	55352
15.34927	49914
15.35498	46875
15.36070	49960
15.36643	48401
15.37215	49774
15.37787	49526
15.38358	46989
15.38932	46922
15.39503	47360
15.40075	47112
15.40648	48071
15.41220	48333
15.41792	48938
15.42365	49492
15.42937	50024
15.43508	52361
15.44082	54585
15.44653	51268
15.45225	52490
15.45798	54118
15.46370	50669
15.46942	51138
15.47515	50723
15.48087	50553
15.48658	50639
15.49232	50355
15.49803	47779
15.50375	48575
15.50948	46868
15.51520	47488
15.52092	46774
15.52665	48632
15.53237	50121
15.53808	44003
15.54380	47532
15.54953	46758
15.55525	46269
15.56097	43922
15.56670	47993
15.57242	43888
15.57813	46414
15.58387	45034
15.58958	45093
15.59530	45839
15.60103	44151
15.60675	45677
15.61247	44750
15.61820	45305
15.62392	45725
15.62963	45906
15.63537	44910
15.64108	46504
15.64680	45974
15.65253	44309
15.65825	45961
15.66397	44784
15.66970	43284
15.67542	44048
15.68113	42924
15.68687	41385
15.69258	42861
15.69830	44127
15.70403	42008
15.70975	43851
15.71547	42895
15.72118	42754
15.72692	45799
15.73263	44446
15.73835	45354
15.74408	44396
15.74980	42693
15.75552	47911
15.76125	45686
15.76697	47332
15.77268	50590
15.77842	49208
15.78413	50391
15.78985	48490
15.79558	48515
15.80130	47132
15.80702	43950
15.81275	43565
15.81847	42223
15.82418	42965
15.82992	42116
15.83563	41579
15.84135	40361
15.84708	40060
15.85280	39947
15.85852	43589
15.86425	41205
15.86997	42387
15.87568	44458
15.88142	44080
15.88713	45088
15.89285	46548
15.89857	43952
15.90430	48819
15.91002	48615
15.91573	46931
15.92147	48140
15.92718	48234
15.93290	44165
15.93863	42580
15.94435	41120
15.95007	42217
15.95580	41549
15.96152	41883
15.96723	38069
15.97297	40714
15.97868	40364
15.98440	40807
15.99013	43073
15.99585	45776
16.00157	43796
16.00730	43693
16.01302	44479
16.01873	45160
16.02447	47417
16.03018	44195
16.03590	46444
16.04163	41912
16.04735	42291
16.05307	40597
16.05880	41281
16.06452	40091
16.07023	39909
16.07595	41410
16.08168	41022
16.08740	41062
16.09312	42117
16.09885	43617
16.10457	43588
16.11028	43266
16.11602	44296
16.12173	43367
16.12745	46821
16.13318	46410
16.13890	50051
16.14462	49449
16.15035	49255
16.15607	49454
16.16178	46768
16.16752	46640
16.17323	45933
16.17895	43696
16.18468	43123
16.19040	40974
16.19612	42661
16.20185	43737
16.20757	41399
16.21328	42873
16.21902	41342
16.22473	41100
16.23045	42250
16.23618	40117
16.24190	40499
16.24762	42096
16.25333	38036
16.25907	39297
16.26478	38271
16.27050	38279
16.27623	39092
16.28195	37601
16.28767	38435
16.29340	37294
16.29912	37805
16.30483	38119
16.31057	38334
16.31628	40456
16.32200	37998
16.32773	37740
16.33345	39251
16.33917	37544
16.34490	41081
16.35062	40364
16.35633	41160
16.36207	44628
16.36778	45394
16.37350	47716
16.37923	51565
16.38495	50576
16.39067	52581
16.39640	50483
16.40212	50814
16.40783	46422
16.41357	47017
16.41928	41504
16.42500	40151
16.43072	37720
16.43645	38863
16.44217	37432
16.44788	38867
16.45362	37752
16.45933	36434
16.46505	38883
16.47078	39282
16.47650	37396
16.48222	37171
16.48795	37466
16.49367	35939
16.49938	34667
16.50512	34640
16.51083	35284
16.51655	36528
16.52228	35432
16.52800	37387
16.53372	37137
16.53945	36029
16.54517	36089
16.55088	36175
16.55662	36700
16.56233	36437
16.56805	34337
16.57378	35447
16.57950	35228
16.58522	34119
16.59095	31844
16.59667	33281
16.60238	32972
16.60810	32311
16.61383	31542
16.61955	33649
16.62527	32204
16.63100	29869
16.63672	32844
16.64243	30052
16.64817	30023
16.65388	29074
16.65960	31642
16.66533	32010
16.67105	32847
16.67677	32147
16.68250	32180
16.68822	30755
16.69393	32691
16.69967	32392
16.70538	34276
16.71110	35510
16.71683	34987
16.72255	37042
16.72827	36112
16.73400	36717
16.73972	36024
16.74543	38841
16.75117	37986
16.75688	40540
16.76260	36394
16.76833	39851
16.77405	42290
16.77977	40746
16.78548	40075
16.79122	41168
16.79693	39739
16.80265	40050
16.80838	41039
16.81410	39014
16.81982	42649
16.82555	41316
16.83127	41427
16.83698	39914
16.84272	42196
16.84843	42864
16.85415	43276
16.85988	43248
16.86560	39537
16.87132	41379
16.87705	41251
16.88277	40518
16.88848	40828
16.89422	42337
16.89993	41958
16.90565	41060
16.91138	40995
16.91710	42871
16.92282	43194
16.92855	40838
16.93427	43136
16.93998	38672
16.94572	35899
16.95143	37272
16.95715	37278
16.96287	36094
16.96860	35352
16.97432	32684
16.98003	35432
16.98577	34531
16.99148	34142
16.99720	34605
17.00293	34493
17.00865	31081
17.01437	31192
17.02010	32586
17.02582	32620
17.03153	33851
17.03727	31774
17.04298	32622
17.04870	32284
17.05443	30831
17.06015	33095
17.06587	31319
17.07160	32071
17.07732	29898
17.08303	29652
17.08877	28745
17.09448	30394
17.10020	30227
17.10593	31279
17.11165	30934
17.11737	31141
17.12310	30742
17.12882	30478
17.13453	28430
17.14025	31232
17.14598	30687
17.15170	30525
17.15742	32788
17.16315	30798
17.16887	29440
17.17458	30034
17.18032	31566
17.18603	30070
17.19175	27670
17.19748	29126
17.20320	26770
17.20892	27185
17.21465	27069
17.22037	27526
17.22608	30782
17.23182	27361
17.23753	28157
17.24325	28477
